##TITLE= WL Accuracy at 546.1nm
##JCAMP-DX= 4.24
##DATA TYPE= UV/VIS SPECTRUM
##ORIGIN= 
##OWNER= Benson
##DATE= 14:31:30, 05/23/2025
##SAMPLE DESCRIPTION= 
##SPECTROMETER/DATA SYSTEM= Hitachi Model U-3900H Spectrophotometer;
Serial Number: 2089-010;
ROM Version: 2J25300 07;
##INSTRUMENT PARAMETERS= Scan Speed= 300 nm/min;
Delay= 0 s;
Cycle Time= 0 min;
Replicates= 1;
Auto Zero before each run= On;
Wavelength of Auto Zero before each run= 400.00 nm;
Slit Width= 2 nm;
PMT Voltage= Auto;
Lamp Change Mode= Auto;
Lamp Change Wavelength= 340.00 nm;
Baseline Correction= User 1(User One);
High Resolution= Off;
D2 Lamp= On;
WI Lamp= On;
R/S Reverse= Off;
##DELTAX= -0.50
##PATH_LENGTH= 10.0mm
##XLABEL= nm
##YLABEL= Abs
##XUNITS= NANOMETERS
##YUNITS= ABSORBANCE
##XFACTOR= 1.0
##YFACTOR= 1.0
##FIRSTX= 400.00
##LASTX= 250.00
##NPOINTS= 301
##XYDATA= (X++(Y..Y))
400.00 0.000
399.50 0.001
399.00 0.002
398.50 0.003
398.00 0.004
397.50 0.005
397.00 0.006
396.50 0.006
396.00 0.007
395.50 0.008
395.00 0.008
394.50 0.009
394.00 0.010
393.50 0.011
393.00 0.011
392.50 0.013
392.00 0.014
391.50 0.015
391.00 0.016
390.50 0.017
390.00 0.018
389.50 0.019
389.00 0.020
388.50 0.021
388.00 0.022
387.50 0.023
387.00 0.024
386.50 0.025
386.00 0.026
385.50 0.026
385.00 0.027
384.50 0.028
384.00 0.029
383.50 0.030
383.00 0.032
382.50 0.032
382.00 0.032
381.50 0.033
381.00 0.035
380.50 0.039
380.00 0.044
379.50 0.050
379.00 0.056
378.50 0.060
378.00 0.063
377.50 0.065
377.00 0.065
376.50 0.066
376.00 0.068
375.50 0.070
375.00 0.071
374.50 0.073
374.00 0.074
373.50 0.076
373.00 0.078
372.50 0.080
372.00 0.082
371.50 0.084
371.00 0.086
370.50 0.088
370.00 0.090
369.50 0.092
369.00 0.094
368.50 0.096
368.00 0.098
367.50 0.100
367.00 0.101
366.50 0.103
366.00 0.104
365.50 0.106
365.00 0.107
364.50 0.109
364.00 0.110
363.50 0.112
363.00 0.115
362.50 0.118
362.00 0.120
361.50 0.124
361.00 0.126
360.50 0.128
360.00 0.130
359.50 0.132
359.00 0.134
358.50 0.136
358.00 0.138
357.50 0.141
357.00 0.143
356.50 0.145
356.00 0.147
355.50 0.150
355.00 0.152
354.50 0.154
354.00 0.157
353.50 0.160
353.00 0.163
352.50 0.167
352.00 0.170
351.50 0.173
351.00 0.176
350.50 0.179
350.00 0.182
349.50 0.185
349.00 0.187
348.50 0.190
348.00 0.192
347.50 0.194
347.00 0.196
346.50 0.197
346.00 0.199
345.50 0.202
345.00 0.205
344.50 0.208
344.00 0.212
343.50 0.215
343.00 0.213
342.50 0.223
342.00 0.234
341.50 0.237
341.00 0.231
340.50 0.217
340.00 0.197
339.50 0.176
339.00 0.158
338.50 0.146
338.00 0.142
337.50 0.147
337.00 0.158
336.50 0.170
336.00 0.171
335.50 0.177
335.00 0.184
334.50 0.191
334.00 0.199
333.50 0.208
333.00 0.216
332.50 0.226
332.00 0.238
331.50 0.250
331.00 0.263
330.50 0.277
330.00 0.292
329.50 0.308
329.00 0.323
328.50 0.339
328.00 0.356
327.50 0.374
327.00 0.391
326.50 0.410
326.00 0.429
325.50 0.448
325.00 0.468
324.50 0.489
324.00 0.510
323.50 0.531
323.00 0.553
322.50 0.576
322.00 0.598
321.50 0.620
321.00 0.642
320.50 0.664
320.00 0.685
319.50 0.704
319.00 0.721
318.50 0.739
318.00 0.755
317.50 0.769
317.00 0.781
316.50 0.793
316.00 0.802
315.50 0.811
315.00 0.819
314.50 0.827
314.00 0.834
313.50 0.840
313.00 0.846
312.50 0.850
312.00 0.854
311.50 0.857
311.00 0.859
310.50 0.860
310.00 0.860
309.50 0.859
309.00 0.858
308.50 0.856
308.00 0.854
307.50 0.851
307.00 0.847
306.50 0.843
306.00 0.838
305.50 0.832
305.00 0.826
304.50 0.820
304.00 0.813
303.50 0.805
303.00 0.797
302.50 0.788
302.00 0.779
301.50 0.770
301.00 0.760
300.50 0.750
300.00 0.741
299.50 0.731
299.00 0.722
298.50 0.713
298.00 0.704
297.50 0.695
297.00 0.687
296.50 0.679
296.00 0.671
295.50 0.663
295.00 0.655
294.50 0.647
294.00 0.639
293.50 0.632
293.00 0.624
292.50 0.617
292.00 0.609
291.50 0.603
291.00 0.597
290.50 0.592
290.00 0.586
289.50 0.581
289.00 0.577
288.50 0.572
288.00 0.569
287.50 0.565
287.00 0.562
286.50 0.560
286.00 0.558
285.50 0.556
285.00 0.554
284.50 0.553
284.00 0.552
283.50 0.552
283.00 0.553
282.50 0.553
282.00 0.555
281.50 0.556
281.00 0.558
280.50 0.562
280.00 0.566
279.50 0.570
279.00 0.575
278.50 0.581
278.00 0.588
277.50 0.595
277.00 0.603
276.50 0.612
276.00 0.622
275.50 0.632
275.00 0.643
274.50 0.655
274.00 0.669
273.50 0.683
273.00 0.699
272.50 0.716
272.00 0.735
271.50 0.755
271.00 0.777
270.50 0.799
270.00 0.823
269.50 0.846
269.00 0.871
268.50 0.895
268.00 0.920
267.50 0.945
267.00 0.972
266.50 0.997
266.00 1.023
265.50 1.048
265.00 1.075
264.50 1.101
264.00 1.127
263.50 1.154
263.00 1.182
262.50 1.210
262.00 1.237
261.50 1.264
261.00 1.292
260.50 1.318
260.00 1.344
259.50 1.367
259.00 1.391
258.50 1.413
258.00 1.433
257.50 1.453
257.00 1.472
256.50 1.490
256.00 1.507
255.50 1.523
255.00 1.539
254.50 1.555
254.00 1.570
253.50 1.588
253.00 1.605
252.50 1.623
252.00 1.642
251.50 1.663
251.00 1.683
250.50 1.701
250.00 1.713
##END=
