##TITLE= WL Accuracy at 546.1nm
##JCAMP-DX= 4.24
##DATA TYPE= UV/VIS SPECTRUM
##ORIGIN= 
##OWNER= Benson
##DATE= 13:12:35, 05/23/2025
##SAMPLE DESCRIPTION= 
##SPECTROMETER/DATA SYSTEM= Hitachi Model U-3900H Spectrophotometer;
Serial Number: 2089-010;
ROM Version: 2J25300 07;
##INSTRUMENT PARAMETERS= Scan Speed= 300 nm/min;
Delay= 0 s;
Cycle Time= 0 min;
Replicates= 1;
Auto Zero before each run= On;
Wavelength of Auto Zero before each run= 400.00 nm;
Slit Width= 2 nm;
PMT Voltage= Auto;
Lamp Change Mode= Auto;
Lamp Change Wavelength= 340.00 nm;
Baseline Correction= User 1(User One);
High Resolution= Off;
D2 Lamp= On;
WI Lamp= On;
R/S Reverse= Off;
##DELTAX= -0.50
##PATH_LENGTH= 10.0mm
##XLABEL= nm
##YLABEL= Abs
##XUNITS= NANOMETERS
##YUNITS= ABSORBANCE
##XFACTOR= 1.0
##YFACTOR= 1.0
##FIRSTX= 400.00
##LASTX= 250.00
##NPOINTS= 301
##XYDATA= (X++(Y..Y))
400.00 0.000
399.50 0.000
399.00 0.000
398.50 0.000
398.00 0.000
397.50 0.000
397.00 0.001
396.50 0.001
396.00 0.001
395.50 0.001
395.00 0.001
394.50 0.001
394.00 0.001
393.50 0.001
393.00 0.001
392.50 0.001
392.00 0.001
391.50 0.002
391.00 0.002
390.50 0.002
390.00 0.002
389.50 0.002
389.00 0.002
388.50 0.002
388.00 0.002
387.50 0.003
387.00 0.003
386.50 0.003
386.00 0.003
385.50 0.003
385.00 0.003
384.50 0.003
384.00 0.003
383.50 0.004
383.00 0.005
382.50 0.004
382.00 0.003
381.50 0.003
381.00 0.004
380.50 0.007
380.00 0.011
379.50 0.016
379.00 0.021
378.50 0.025
378.00 0.026
377.50 0.027
377.00 0.027
376.50 0.026
376.00 0.029
375.50 0.030
375.00 0.030
374.50 0.031
374.00 0.031
373.50 0.032
373.00 0.033
372.50 0.033
372.00 0.035
371.50 0.036
371.00 0.037
370.50 0.038
370.00 0.040
369.50 0.041
369.00 0.042
368.50 0.043
368.00 0.044
367.50 0.044
367.00 0.045
366.50 0.045
366.00 0.046
365.50 0.047
365.00 0.048
364.50 0.048
364.00 0.049
363.50 0.051
363.00 0.052
362.50 0.054
362.00 0.056
361.50 0.058
361.00 0.060
360.50 0.061
360.00 0.062
359.50 0.063
359.00 0.064
358.50 0.065
358.00 0.066
357.50 0.067
357.00 0.068
356.50 0.070
356.00 0.071
355.50 0.073
355.00 0.074
354.50 0.076
354.00 0.077
353.50 0.079
353.00 0.082
352.50 0.084
352.00 0.087
351.50 0.089
351.00 0.091
350.50 0.093
350.00 0.095
349.50 0.096
349.00 0.097
348.50 0.098
348.00 0.099
347.50 0.100
347.00 0.101
346.50 0.101
346.00 0.102
345.50 0.104
345.00 0.105
344.50 0.107
344.00 0.109
343.50 0.110
343.00 0.106
342.50 0.114
342.00 0.123
341.50 0.124
341.00 0.115
340.50 0.097
340.00 0.074
339.50 0.049
339.00 0.028
338.50 0.012
338.00 0.005
337.50 0.006
337.00 0.012
336.50 0.019
336.00 0.015
335.50 0.016
335.00 0.017
334.50 0.017
334.00 0.018
333.50 0.019
333.00 0.020
332.50 0.021
332.00 0.022
331.50 0.023
331.00 0.025
330.50 0.026
330.00 0.027
329.50 0.029
329.00 0.031
328.50 0.033
328.00 0.035
327.50 0.037
327.00 0.039
326.50 0.040
326.00 0.042
325.50 0.044
325.00 0.046
324.50 0.048
324.00 0.050
323.50 0.053
323.00 0.055
322.50 0.058
322.00 0.060
321.50 0.062
321.00 0.065
320.50 0.067
320.00 0.069
319.50 0.072
319.00 0.074
318.50 0.075
318.00 0.077
317.50 0.079
317.00 0.080
316.50 0.081
316.00 0.083
315.50 0.084
315.00 0.085
314.50 0.086
314.00 0.087
313.50 0.088
313.00 0.089
312.50 0.091
312.00 0.092
311.50 0.094
311.00 0.096
310.50 0.098
310.00 0.100
309.50 0.103
309.00 0.106
308.50 0.110
308.00 0.114
307.50 0.118
307.00 0.123
306.50 0.128
306.00 0.134
305.50 0.141
305.00 0.149
304.50 0.157
304.00 0.166
303.50 0.177
303.00 0.187
302.50 0.199
302.00 0.211
301.50 0.225
301.00 0.238
300.50 0.251
300.00 0.264
299.50 0.276
299.00 0.288
298.50 0.300
298.00 0.310
297.50 0.320
297.00 0.329
296.50 0.339
296.00 0.347
295.50 0.354
295.00 0.361
294.50 0.368
294.00 0.374
293.50 0.380
293.00 0.385
292.50 0.389
292.00 0.392
291.50 0.394
291.00 0.396
290.50 0.397
290.00 0.396
289.50 0.395
289.00 0.394
288.50 0.392
288.00 0.390
287.50 0.387
287.00 0.384
286.50 0.381
286.00 0.377
285.50 0.373
285.00 0.368
284.50 0.363
284.00 0.358
283.50 0.352
283.00 0.346
282.50 0.339
282.00 0.331
281.50 0.324
281.00 0.316
280.50 0.307
280.00 0.299
279.50 0.291
279.00 0.283
278.50 0.275
278.00 0.268
277.50 0.262
277.00 0.255
276.50 0.250
276.00 0.244
275.50 0.239
275.00 0.233
274.50 0.228
274.00 0.223
273.50 0.218
273.00 0.214
272.50 0.210
272.00 0.207
271.50 0.204
271.00 0.201
270.50 0.199
270.00 0.198
269.50 0.197
269.00 0.197
268.50 0.197
268.00 0.198
267.50 0.199
267.00 0.201
266.50 0.204
266.00 0.207
265.50 0.210
265.00 0.213
264.50 0.217
264.00 0.222
263.50 0.228
263.00 0.234
262.50 0.241
262.00 0.249
261.50 0.257
261.00 0.266
260.50 0.276
260.00 0.287
259.50 0.298
259.00 0.310
258.50 0.322
258.00 0.335
257.50 0.348
257.00 0.362
256.50 0.376
256.00 0.391
255.50 0.405
255.00 0.421
254.50 0.437
254.00 0.453
253.50 0.469
253.00 0.486
252.50 0.502
252.00 0.519
251.50 0.536
251.00 0.552
250.50 0.565
250.00 0.575
##END=
