##TITLE= WL Accuracy at 546.1nm
##JCAMP-DX= 4.24
##DATA TYPE= UV/VIS SPECTRUM
##ORIGIN= 
##OWNER= Benson
##DATE= 14:19:24, 05/23/2025
##SAMPLE DESCRIPTION= 
##SPECTROMETER/DATA SYSTEM= Hitachi Model U-3900H Spectrophotometer;
Serial Number: 2089-010;
ROM Version: 2J25300 07;
##INSTRUMENT PARAMETERS= Scan Speed= 300 nm/min;
Delay= 0 s;
Cycle Time= 0 min;
Replicates= 1;
Auto Zero before each run= On;
Wavelength of Auto Zero before each run= 400.00 nm;
Slit Width= 2 nm;
PMT Voltage= Auto;
Lamp Change Mode= Auto;
Lamp Change Wavelength= 340.00 nm;
Baseline Correction= User 1(User One);
High Resolution= Off;
D2 Lamp= On;
WI Lamp= On;
R/S Reverse= Off;
##DELTAX= -0.50
##PATH_LENGTH= 10.0mm
##XLABEL= nm
##YLABEL= Abs
##XUNITS= NANOMETERS
##YUNITS= ABSORBANCE
##XFACTOR= 1.0
##YFACTOR= 1.0
##FIRSTX= 400.00
##LASTX= 250.00
##NPOINTS= 301
##XYDATA= (X++(Y..Y))
400.00 0.000
399.50 0.000
399.00 0.000
398.50 0.000
398.00 0.001
397.50 0.001
397.00 0.001
396.50 0.002
396.00 0.002
395.50 0.001
395.00 0.001
394.50 0.001
394.00 0.001
393.50 0.002
393.00 0.002
392.50 0.002
392.00 0.002
391.50 0.003
391.00 0.003
390.50 0.003
390.00 0.003
389.50 0.003
389.00 0.003
388.50 0.003
388.00 0.004
387.50 0.004
387.00 0.004
386.50 0.004
386.00 0.004
385.50 0.004
385.00 0.004
384.50 0.005
384.00 0.005
383.50 0.005
383.00 0.006
382.50 0.005
382.00 0.004
381.50 0.004
381.00 0.006
380.50 0.009
380.00 0.013
379.50 0.018
379.00 0.022
378.50 0.025
378.00 0.027
377.50 0.028
377.00 0.027
376.50 0.027
376.00 0.029
375.50 0.030
375.00 0.031
374.50 0.032
374.00 0.033
373.50 0.033
373.00 0.034
372.50 0.034
372.00 0.036
371.50 0.037
371.00 0.038
370.50 0.039
370.00 0.041
369.50 0.042
369.00 0.043
368.50 0.044
368.00 0.045
367.50 0.045
367.00 0.046
366.50 0.046
366.00 0.047
365.50 0.048
365.00 0.049
364.50 0.049
364.00 0.050
363.50 0.052
363.00 0.053
362.50 0.055
362.00 0.057
361.50 0.059
361.00 0.060
360.50 0.062
360.00 0.063
359.50 0.064
359.00 0.065
358.50 0.066
358.00 0.067
357.50 0.068
357.00 0.069
356.50 0.071
356.00 0.072
355.50 0.074
355.00 0.076
354.50 0.077
354.00 0.079
353.50 0.081
353.00 0.083
352.50 0.086
352.00 0.089
351.50 0.092
351.00 0.094
350.50 0.096
350.00 0.097
349.50 0.098
349.00 0.099
348.50 0.100
348.00 0.102
347.50 0.103
347.00 0.105
346.50 0.106
346.00 0.107
345.50 0.109
345.00 0.111
344.50 0.113
344.00 0.115
343.50 0.118
343.00 0.115
342.50 0.124
342.00 0.134
341.50 0.136
341.00 0.129
340.50 0.113
340.00 0.091
339.50 0.068
339.00 0.049
338.50 0.036
338.00 0.031
337.50 0.035
337.00 0.045
336.50 0.055
336.00 0.054
335.50 0.059
335.00 0.065
334.50 0.070
334.00 0.076
333.50 0.083
333.00 0.090
332.50 0.098
332.00 0.107
331.50 0.118
331.00 0.129
330.50 0.141
330.00 0.154
329.50 0.168
329.00 0.181
328.50 0.195
328.00 0.209
327.50 0.225
327.00 0.240
326.50 0.256
326.00 0.272
325.50 0.289
325.00 0.307
324.50 0.325
324.00 0.344
323.50 0.363
323.00 0.382
322.50 0.402
322.00 0.422
321.50 0.442
321.00 0.461
320.50 0.480
320.00 0.498
319.50 0.515
319.00 0.530
318.50 0.545
318.00 0.558
317.50 0.570
317.00 0.580
316.50 0.590
316.00 0.598
315.50 0.605
315.00 0.611
314.50 0.617
314.00 0.622
313.50 0.626
313.00 0.629
312.50 0.632
312.00 0.633
311.50 0.633
311.00 0.633
310.50 0.632
310.00 0.631
309.50 0.628
309.00 0.625
308.50 0.622
308.00 0.618
307.50 0.613
307.00 0.607
306.50 0.601
306.00 0.594
305.50 0.587
305.00 0.580
304.50 0.572
304.00 0.564
303.50 0.555
303.00 0.545
302.50 0.535
302.00 0.525
301.50 0.514
301.00 0.504
300.50 0.493
300.00 0.482
299.50 0.470
299.00 0.460
298.50 0.449
298.00 0.439
297.50 0.429
297.00 0.419
296.50 0.410
296.00 0.400
295.50 0.390
295.00 0.381
294.50 0.371
294.00 0.362
293.50 0.353
293.00 0.343
292.50 0.334
292.00 0.325
291.50 0.315
291.00 0.307
290.50 0.298
290.00 0.290
289.50 0.282
289.00 0.275
288.50 0.268
288.00 0.262
287.50 0.256
287.00 0.251
286.50 0.246
286.00 0.242
285.50 0.238
285.00 0.234
284.50 0.231
284.00 0.228
283.50 0.225
283.00 0.223
282.50 0.221
282.00 0.219
281.50 0.218
281.00 0.218
280.50 0.218
280.00 0.219
279.50 0.221
279.00 0.223
278.50 0.226
278.00 0.231
277.50 0.235
277.00 0.241
276.50 0.247
276.00 0.254
275.50 0.262
275.00 0.271
274.50 0.280
274.00 0.291
273.50 0.303
273.00 0.316
272.50 0.330
272.00 0.346
271.50 0.362
271.00 0.381
270.50 0.400
270.00 0.420
269.50 0.441
269.00 0.462
268.50 0.484
268.00 0.505
267.50 0.527
267.00 0.550
266.50 0.573
266.00 0.595
265.50 0.617
265.00 0.641
264.50 0.663
264.00 0.687
263.50 0.710
263.00 0.735
262.50 0.758
262.00 0.782
261.50 0.805
261.00 0.828
260.50 0.850
260.00 0.872
259.50 0.891
259.00 0.912
258.50 0.929
258.00 0.946
257.50 0.961
257.00 0.977
256.50 0.990
256.00 1.004
255.50 1.016
255.00 1.029
254.50 1.041
254.00 1.054
253.50 1.066
253.00 1.078
252.50 1.089
252.00 1.103
251.50 1.117
251.00 1.132
250.50 1.144
250.00 1.153
##END=
