##TITLE= WL Accuracy at 546.1nm
##JCAMP-DX= 4.24
##DATA TYPE= UV/VIS SPECTRUM
##ORIGIN= 
##OWNER= Benson
##DATE= 14:28:29, 05/23/2025
##SAMPLE DESCRIPTION= 
##SPECTROMETER/DATA SYSTEM= Hitachi Model U-3900H Spectrophotometer;
Serial Number: 2089-010;
ROM Version: 2J25300 07;
##INSTRUMENT PARAMETERS= Scan Speed= 300 nm/min;
Delay= 0 s;
Cycle Time= 0 min;
Replicates= 1;
Auto Zero before each run= On;
Wavelength of Auto Zero before each run= 400.00 nm;
Slit Width= 2 nm;
PMT Voltage= Auto;
Lamp Change Mode= Auto;
Lamp Change Wavelength= 340.00 nm;
Baseline Correction= User 1(User One);
High Resolution= Off;
D2 Lamp= On;
WI Lamp= On;
R/S Reverse= Off;
##DELTAX= -0.50
##PATH_LENGTH= 10.0mm
##XLABEL= nm
##YLABEL= Abs
##XUNITS= NANOMETERS
##YUNITS= ABSORBANCE
##XFACTOR= 1.0
##YFACTOR= 1.0
##FIRSTX= 400.00
##LASTX= 250.00
##NPOINTS= 301
##XYDATA= (X++(Y..Y))
400.00 0.000
399.50 0.000
399.00 0.000
398.50 0.000
398.00 0.000
397.50 0.001
397.00 0.001
396.50 0.001
396.00 0.001
395.50 0.001
395.00 0.001
394.50 0.001
394.00 0.001
393.50 0.001
393.00 0.001
392.50 0.001
392.00 0.002
391.50 0.002
391.00 0.002
390.50 0.002
390.00 0.002
389.50 0.002
389.00 0.003
388.50 0.003
388.00 0.003
387.50 0.003
387.00 0.003
386.50 0.003
386.00 0.003
385.50 0.003
385.00 0.003
384.50 0.004
384.00 0.004
383.50 0.004
383.00 0.005
382.50 0.004
382.00 0.003
381.50 0.003
381.00 0.005
380.50 0.009
380.00 0.014
379.50 0.019
379.00 0.024
378.50 0.028
378.00 0.030
377.50 0.030
377.00 0.029
376.50 0.029
376.00 0.031
375.50 0.032
375.00 0.033
374.50 0.034
374.00 0.035
373.50 0.035
373.00 0.036
372.50 0.037
372.00 0.038
371.50 0.039
371.00 0.040
370.50 0.041
370.00 0.043
369.50 0.044
369.00 0.045
368.50 0.046
368.00 0.047
367.50 0.048
367.00 0.048
366.50 0.049
366.00 0.050
365.50 0.051
365.00 0.051
364.50 0.052
364.00 0.053
363.50 0.054
363.00 0.056
362.50 0.057
362.00 0.059
361.50 0.061
361.00 0.063
360.50 0.064
360.00 0.065
359.50 0.067
359.00 0.067
358.50 0.069
358.00 0.069
357.50 0.070
357.00 0.072
356.50 0.073
356.00 0.075
355.50 0.076
355.00 0.078
354.50 0.080
354.00 0.081
353.50 0.083
353.00 0.085
352.50 0.088
352.00 0.091
351.50 0.094
351.00 0.096
350.50 0.098
350.00 0.100
349.50 0.101
349.00 0.101
348.50 0.103
348.00 0.104
347.50 0.106
347.00 0.107
346.50 0.109
346.00 0.110
345.50 0.112
345.00 0.114
344.50 0.116
344.00 0.118
343.50 0.121
343.00 0.117
342.50 0.127
342.00 0.137
341.50 0.140
341.00 0.132
340.50 0.115
340.00 0.093
339.50 0.070
339.00 0.050
338.50 0.037
338.00 0.032
337.50 0.036
337.00 0.047
336.50 0.057
336.00 0.057
335.50 0.062
335.00 0.068
334.50 0.074
334.00 0.080
333.50 0.087
333.00 0.095
332.50 0.103
332.00 0.113
331.50 0.124
331.00 0.136
330.50 0.149
330.00 0.162
329.50 0.177
329.00 0.191
328.50 0.205
328.00 0.221
327.50 0.237
327.00 0.252
326.50 0.269
326.00 0.287
325.50 0.305
325.00 0.323
324.50 0.342
324.00 0.361
323.50 0.381
323.00 0.400
322.50 0.422
322.00 0.443
321.50 0.464
321.00 0.484
320.50 0.504
320.00 0.522
319.50 0.540
319.00 0.555
318.50 0.571
318.00 0.584
317.50 0.597
317.00 0.607
316.50 0.617
316.00 0.626
315.50 0.633
315.00 0.639
314.50 0.645
314.00 0.650
313.50 0.654
313.00 0.657
312.50 0.660
312.00 0.662
311.50 0.662
311.00 0.661
310.50 0.660
310.00 0.658
309.50 0.656
309.00 0.653
308.50 0.649
308.00 0.644
307.50 0.638
307.00 0.632
306.50 0.625
306.00 0.618
305.50 0.610
305.00 0.602
304.50 0.593
304.00 0.583
303.50 0.573
303.00 0.563
302.50 0.551
302.00 0.540
301.50 0.528
301.00 0.516
300.50 0.504
300.00 0.492
299.50 0.479
299.00 0.467
298.50 0.455
298.00 0.444
297.50 0.432
297.00 0.422
296.50 0.411
296.00 0.401
295.50 0.390
295.00 0.380
294.50 0.370
294.00 0.359
293.50 0.349
293.00 0.339
292.50 0.329
292.00 0.319
291.50 0.309
291.00 0.300
290.50 0.291
290.00 0.282
289.50 0.274
289.00 0.266
288.50 0.259
288.00 0.253
287.50 0.247
287.00 0.242
286.50 0.237
286.00 0.233
285.50 0.229
285.00 0.225
284.50 0.221
284.00 0.219
283.50 0.216
283.00 0.214
282.50 0.213
282.00 0.212
281.50 0.211
281.00 0.211
280.50 0.212
280.00 0.214
279.50 0.216
279.00 0.219
278.50 0.223
278.00 0.228
277.50 0.233
277.00 0.239
276.50 0.246
276.00 0.254
275.50 0.262
275.00 0.272
274.50 0.282
274.00 0.294
273.50 0.307
273.00 0.321
272.50 0.336
272.00 0.353
271.50 0.370
271.00 0.390
270.50 0.410
270.00 0.431
269.50 0.453
269.00 0.476
268.50 0.498
268.00 0.521
267.50 0.544
267.00 0.568
266.50 0.592
266.00 0.615
265.50 0.638
265.00 0.663
264.50 0.687
264.00 0.712
263.50 0.736
263.00 0.762
262.50 0.787
262.00 0.811
261.50 0.835
261.00 0.860
260.50 0.883
260.00 0.905
259.50 0.926
259.00 0.947
258.50 0.965
258.00 0.983
257.50 0.999
257.00 1.015
256.50 1.030
256.00 1.044
255.50 1.057
255.00 1.071
254.50 1.084
254.00 1.097
253.50 1.109
253.00 1.122
252.50 1.135
252.00 1.149
251.50 1.165
251.00 1.181
250.50 1.195
250.00 1.205
##END=
