##TITLE= WL Accuracy at 546.1nm
##JCAMP-DX= 4.24
##DATA TYPE= UV/VIS SPECTRUM
##ORIGIN= 
##OWNER= Benson
##DATE= 13:47:32, 05/23/2025
##SAMPLE DESCRIPTION= 
##SPECTROMETER/DATA SYSTEM= Hitachi Model U-3900H Spectrophotometer;
Serial Number: 2089-010;
ROM Version: 2J25300 07;
##INSTRUMENT PARAMETERS= Scan Speed= 300 nm/min;
Delay= 0 s;
Cycle Time= 0 min;
Replicates= 1;
Auto Zero before each run= On;
Wavelength of Auto Zero before each run= 400.00 nm;
Slit Width= 2 nm;
PMT Voltage= Auto;
Lamp Change Mode= Auto;
Lamp Change Wavelength= 340.00 nm;
Baseline Correction= User 1(User One);
High Resolution= Off;
D2 Lamp= On;
WI Lamp= On;
R/S Reverse= Off;
##DELTAX= -0.50
##PATH_LENGTH= 10.0mm
##XLABEL= nm
##YLABEL= Abs
##XUNITS= NANOMETERS
##YUNITS= ABSORBANCE
##XFACTOR= 1.0
##YFACTOR= 1.0
##FIRSTX= 400.00
##LASTX= 250.00
##NPOINTS= 301
##XYDATA= (X++(Y..Y))
400.00 0.000
399.50 0.000
399.00 0.000
398.50 0.000
398.00 0.000
397.50 0.001
397.00 0.001
396.50 0.001
396.00 0.001
395.50 0.001
395.00 0.001
394.50 0.001
394.00 0.001
393.50 0.001
393.00 0.001
392.50 0.002
392.00 0.002
391.50 0.002
391.00 0.003
390.50 0.003
390.00 0.003
389.50 0.003
389.00 0.003
388.50 0.003
388.00 0.003
387.50 0.004
387.00 0.004
386.50 0.004
386.00 0.004
385.50 0.005
385.00 0.005
384.50 0.005
384.00 0.005
383.50 0.005
383.00 0.006
382.50 0.006
382.00 0.004
381.50 0.004
381.00 0.006
380.50 0.008
380.00 0.013
379.50 0.017
379.00 0.022
378.50 0.026
378.00 0.028
377.50 0.029
377.00 0.028
376.50 0.028
376.00 0.029
375.50 0.030
375.00 0.031
374.50 0.032
374.00 0.033
373.50 0.034
373.00 0.034
372.50 0.035
372.00 0.036
371.50 0.037
371.00 0.039
370.50 0.040
370.00 0.041
369.50 0.042
369.00 0.044
368.50 0.045
368.00 0.046
367.50 0.046
367.00 0.047
366.50 0.048
366.00 0.048
365.50 0.049
365.00 0.050
364.50 0.051
364.00 0.052
363.50 0.053
363.00 0.055
362.50 0.057
362.00 0.059
361.50 0.060
361.00 0.062
360.50 0.064
360.00 0.065
359.50 0.066
359.00 0.067
358.50 0.068
358.00 0.069
357.50 0.070
357.00 0.071
356.50 0.073
356.00 0.075
355.50 0.077
355.00 0.078
354.50 0.079
354.00 0.081
353.50 0.083
353.00 0.085
352.50 0.088
352.00 0.091
351.50 0.093
351.00 0.096
350.50 0.098
350.00 0.099
349.50 0.100
349.00 0.101
348.50 0.102
348.00 0.104
347.50 0.105
347.00 0.107
346.50 0.108
346.00 0.109
345.50 0.110
345.00 0.111
344.50 0.113
344.00 0.115
343.50 0.118
343.00 0.115
342.50 0.124
342.00 0.132
341.50 0.134
341.00 0.126
340.50 0.109
340.00 0.087
339.50 0.064
339.00 0.044
338.50 0.030
338.00 0.025
337.50 0.027
337.00 0.035
336.50 0.043
336.00 0.041
335.50 0.044
335.00 0.047
334.50 0.050
334.00 0.054
333.50 0.058
333.00 0.062
332.50 0.067
332.00 0.073
331.50 0.079
331.00 0.085
330.50 0.093
330.00 0.100
329.50 0.108
329.00 0.116
328.50 0.124
328.00 0.133
327.50 0.142
327.00 0.151
326.50 0.161
326.00 0.171
325.50 0.181
325.00 0.191
324.50 0.202
324.00 0.213
323.50 0.224
323.00 0.236
322.50 0.248
322.00 0.260
321.50 0.272
321.00 0.285
320.50 0.296
320.00 0.307
319.50 0.317
319.00 0.327
318.50 0.336
318.00 0.344
317.50 0.351
317.00 0.357
316.50 0.363
316.00 0.368
315.50 0.373
315.00 0.377
314.50 0.381
314.00 0.384
313.50 0.387
313.00 0.389
312.50 0.391
312.00 0.393
311.50 0.394
311.00 0.395
310.50 0.396
310.00 0.396
309.50 0.396
309.00 0.396
308.50 0.395
308.00 0.395
307.50 0.394
307.00 0.393
306.50 0.392
306.00 0.391
305.50 0.391
305.00 0.390
304.50 0.390
304.00 0.390
303.50 0.390
303.00 0.389
302.50 0.389
302.00 0.390
301.50 0.390
301.00 0.390
300.50 0.390
300.00 0.390
299.50 0.390
299.00 0.389
298.50 0.389
298.00 0.388
297.50 0.387
297.00 0.386
296.50 0.385
296.00 0.383
295.50 0.381
295.00 0.380
294.50 0.378
294.00 0.375
293.50 0.373
293.00 0.370
292.50 0.367
292.00 0.363
291.50 0.360
291.00 0.356
290.50 0.351
290.00 0.346
289.50 0.342
289.00 0.337
288.50 0.333
288.00 0.328
287.50 0.324
287.00 0.320
286.50 0.316
286.00 0.312
285.50 0.308
285.00 0.304
284.50 0.300
284.00 0.296
283.50 0.292
283.00 0.288
282.50 0.283
282.00 0.279
281.50 0.275
281.00 0.271
280.50 0.267
280.00 0.264
279.50 0.261
279.00 0.259
278.50 0.257
278.00 0.256
277.50 0.256
277.00 0.256
276.50 0.257
276.00 0.258
275.50 0.259
275.00 0.261
274.50 0.264
274.00 0.268
273.50 0.272
273.00 0.278
272.50 0.284
272.00 0.291
271.50 0.298
271.00 0.307
270.50 0.317
270.00 0.327
269.50 0.338
269.00 0.349
268.50 0.361
268.00 0.373
267.50 0.386
267.00 0.399
266.50 0.413
266.00 0.426
265.50 0.440
265.00 0.453
264.50 0.468
264.00 0.482
263.50 0.498
263.00 0.513
262.50 0.529
262.00 0.545
261.50 0.562
261.00 0.578
260.50 0.594
260.00 0.610
259.50 0.626
259.00 0.641
258.50 0.656
258.00 0.670
257.50 0.685
257.00 0.698
256.50 0.711
256.00 0.724
255.50 0.737
255.00 0.750
254.50 0.763
254.00 0.776
253.50 0.790
253.00 0.802
252.50 0.815
252.00 0.828
251.50 0.843
251.00 0.856
250.50 0.866
250.00 0.874
##END=
