##TITLE= WL Accuracy at 546.1nm
##JCAMP-DX= 4.24
##DATA TYPE= UV/VIS SPECTRUM
##ORIGIN= 
##OWNER= Benson
##DATE= 13:57:59, 05/23/2025
##SAMPLE DESCRIPTION= 
##SPECTROMETER/DATA SYSTEM= Hitachi Model U-3900H Spectrophotometer;
Serial Number: 2089-010;
ROM Version: 2J25300 07;
##INSTRUMENT PARAMETERS= Scan Speed= 300 nm/min;
Delay= 0 s;
Cycle Time= 0 min;
Replicates= 1;
Auto Zero before each run= On;
Wavelength of Auto Zero before each run= 400.00 nm;
Slit Width= 2 nm;
PMT Voltage= Auto;
Lamp Change Mode= Auto;
Lamp Change Wavelength= 340.00 nm;
Baseline Correction= User 1(User One);
High Resolution= Off;
D2 Lamp= On;
WI Lamp= On;
R/S Reverse= Off;
##DELTAX= -0.50
##PATH_LENGTH= 10.0mm
##XLABEL= nm
##YLABEL= Abs
##XUNITS= NANOMETERS
##YUNITS= ABSORBANCE
##XFACTOR= 1.0
##YFACTOR= 1.0
##FIRSTX= 400.00
##LASTX= 250.00
##NPOINTS= 301
##XYDATA= (X++(Y..Y))
400.00 0.001
399.50 0.001
399.00 0.002
398.50 0.002
398.00 0.002
397.50 0.002
397.00 0.002
396.50 0.002
396.00 0.003
395.50 0.003
395.00 0.003
394.50 0.003
394.00 0.003
393.50 0.003
393.00 0.003
392.50 0.003
392.00 0.004
391.50 0.004
391.00 0.004
390.50 0.004
390.00 0.005
389.50 0.005
389.00 0.005
388.50 0.005
388.00 0.005
387.50 0.005
387.00 0.006
386.50 0.006
386.00 0.006
385.50 0.006
385.00 0.006
384.50 0.006
384.00 0.006
383.50 0.007
383.00 0.008
382.50 0.007
382.00 0.006
381.50 0.006
381.00 0.007
380.50 0.010
380.00 0.014
379.50 0.019
379.00 0.023
378.50 0.026
378.00 0.028
377.50 0.029
377.00 0.029
376.50 0.029
376.00 0.031
375.50 0.032
375.00 0.033
374.50 0.033
374.00 0.034
373.50 0.034
373.00 0.035
372.50 0.036
372.00 0.037
371.50 0.039
371.00 0.040
370.50 0.041
370.00 0.042
369.50 0.043
369.00 0.044
368.50 0.045
368.00 0.046
367.50 0.047
367.00 0.047
366.50 0.048
366.00 0.049
365.50 0.050
365.00 0.050
364.50 0.051
364.00 0.052
363.50 0.054
363.00 0.055
362.50 0.057
362.00 0.060
361.50 0.061
361.00 0.063
360.50 0.064
360.00 0.065
359.50 0.066
359.00 0.067
358.50 0.068
358.00 0.070
357.50 0.071
357.00 0.072
356.50 0.074
356.00 0.075
355.50 0.077
355.00 0.078
354.50 0.080
354.00 0.082
353.50 0.084
353.00 0.086
352.50 0.089
352.00 0.091
351.50 0.094
351.00 0.096
350.50 0.098
350.00 0.100
349.50 0.101
349.00 0.102
348.50 0.103
348.00 0.104
347.50 0.105
347.00 0.106
346.50 0.108
346.00 0.109
345.50 0.111
345.00 0.113
344.50 0.115
344.00 0.117
343.50 0.119
343.00 0.116
342.50 0.125
342.00 0.135
341.50 0.137
341.00 0.129
340.50 0.112
340.00 0.090
339.50 0.067
339.00 0.047
338.50 0.033
338.00 0.028
337.50 0.031
337.00 0.039
336.50 0.048
336.00 0.047
335.50 0.051
335.00 0.055
334.50 0.059
334.00 0.064
333.50 0.069
333.00 0.075
332.50 0.081
332.00 0.089
331.50 0.096
331.00 0.105
330.50 0.114
330.00 0.124
329.50 0.134
329.00 0.145
328.50 0.156
328.00 0.168
327.50 0.179
327.00 0.191
326.50 0.203
326.00 0.216
325.50 0.229
325.00 0.243
324.50 0.257
324.00 0.272
323.50 0.286
323.00 0.302
322.50 0.318
322.00 0.333
321.50 0.349
321.00 0.365
320.50 0.380
320.00 0.393
319.50 0.406
319.00 0.419
318.50 0.430
318.00 0.441
317.50 0.450
317.00 0.459
316.50 0.466
316.00 0.472
315.50 0.478
315.00 0.484
314.50 0.488
314.00 0.492
313.50 0.495
313.00 0.498
312.50 0.500
312.00 0.502
311.50 0.503
311.00 0.503
310.50 0.503
310.00 0.503
309.50 0.502
309.00 0.500
308.50 0.499
308.00 0.496
307.50 0.494
307.00 0.491
306.50 0.488
306.00 0.484
305.50 0.481
305.00 0.477
304.50 0.473
304.00 0.470
303.50 0.465
303.00 0.461
302.50 0.456
302.00 0.452
301.50 0.447
301.00 0.442
300.50 0.438
300.00 0.432
299.50 0.427
299.00 0.422
298.50 0.417
298.00 0.412
297.50 0.407
297.00 0.402
296.50 0.397
296.00 0.392
295.50 0.387
295.00 0.381
294.50 0.376
294.00 0.370
293.50 0.365
293.00 0.359
292.50 0.353
292.00 0.347
291.50 0.341
291.00 0.335
290.50 0.328
290.00 0.322
289.50 0.316
289.00 0.309
288.50 0.304
288.00 0.299
287.50 0.294
287.00 0.290
286.50 0.285
286.00 0.281
285.50 0.277
285.00 0.273
284.50 0.269
284.00 0.265
283.50 0.262
283.00 0.259
282.50 0.256
282.00 0.253
281.50 0.250
281.00 0.248
280.50 0.246
280.00 0.244
279.50 0.244
279.00 0.243
278.50 0.244
278.00 0.245
277.50 0.247
277.00 0.250
276.50 0.253
276.00 0.257
275.50 0.261
275.00 0.266
274.50 0.272
274.00 0.279
273.50 0.287
273.00 0.296
272.50 0.306
272.00 0.316
271.50 0.328
271.00 0.341
270.50 0.355
270.00 0.370
269.50 0.386
269.00 0.402
268.50 0.418
268.00 0.435
267.50 0.452
267.00 0.469
266.50 0.486
266.00 0.503
265.50 0.521
265.00 0.539
264.50 0.558
264.00 0.576
263.50 0.595
263.00 0.614
262.50 0.634
262.00 0.653
261.50 0.673
261.00 0.692
260.50 0.710
260.00 0.728
259.50 0.746
259.00 0.763
258.50 0.779
258.00 0.793
257.50 0.808
257.00 0.822
256.50 0.835
256.00 0.847
255.50 0.860
255.00 0.872
254.50 0.884
254.00 0.896
253.50 0.908
253.00 0.920
252.50 0.931
252.00 0.944
251.50 0.958
251.00 0.970
250.50 0.981
250.00 0.989
##END=
