##TITLE= WL Accuracy at 546.1nm
##JCAMP-DX= 4.24
##DATA TYPE= UV/VIS SPECTRUM
##ORIGIN= 
##OWNER= Benson
##DATE= 13:54:19, 05/23/2025
##SAMPLE DESCRIPTION= 
##SPECTROMETER/DATA SYSTEM= Hitachi Model U-3900H Spectrophotometer;
Serial Number: 2089-010;
ROM Version: 2J25300 07;
##INSTRUMENT PARAMETERS= Scan Speed= 300 nm/min;
Delay= 0 s;
Cycle Time= 0 min;
Replicates= 1;
Auto Zero before each run= On;
Wavelength of Auto Zero before each run= 400.00 nm;
Slit Width= 2 nm;
PMT Voltage= Auto;
Lamp Change Mode= Auto;
Lamp Change Wavelength= 340.00 nm;
Baseline Correction= User 1(User One);
High Resolution= Off;
D2 Lamp= On;
WI Lamp= On;
R/S Reverse= Off;
##DELTAX= -0.50
##PATH_LENGTH= 10.0mm
##XLABEL= nm
##YLABEL= Abs
##XUNITS= NANOMETERS
##YUNITS= ABSORBANCE
##XFACTOR= 1.0
##YFACTOR= 1.0
##FIRSTX= 400.00
##LASTX= 250.00
##NPOINTS= 301
##XYDATA= (X++(Y..Y))
400.00 0.001
399.50 0.001
399.00 0.001
398.50 0.001
398.00 0.002
397.50 0.002
397.00 0.002
396.50 0.002
396.00 0.003
395.50 0.003
395.00 0.002
394.50 0.002
394.00 0.002
393.50 0.002
393.00 0.002
392.50 0.002
392.00 0.003
391.50 0.003
391.00 0.003
390.50 0.003
390.00 0.002
389.50 0.003
389.00 0.003
388.50 0.003
388.00 0.004
387.50 0.004
387.00 0.004
386.50 0.004
386.00 0.004
385.50 0.004
385.00 0.004
384.50 0.005
384.00 0.005
383.50 0.005
383.00 0.006
382.50 0.005
382.00 0.004
381.50 0.004
381.00 0.005
380.50 0.009
380.00 0.013
379.50 0.018
379.00 0.022
378.50 0.025
378.00 0.027
377.50 0.028
377.00 0.028
376.50 0.028
376.00 0.030
375.50 0.031
375.00 0.032
374.50 0.032
374.00 0.033
373.50 0.033
373.00 0.034
372.50 0.035
372.00 0.036
371.50 0.038
371.00 0.039
370.50 0.040
370.00 0.041
369.50 0.043
369.00 0.044
368.50 0.045
368.00 0.045
367.50 0.046
367.00 0.047
366.50 0.047
366.00 0.048
365.50 0.049
365.00 0.050
364.50 0.051
364.00 0.052
363.50 0.053
363.00 0.055
362.50 0.057
362.00 0.059
361.50 0.061
361.00 0.062
360.50 0.064
360.00 0.065
359.50 0.066
359.00 0.067
358.50 0.068
358.00 0.069
357.50 0.070
357.00 0.072
356.50 0.073
356.00 0.074
355.50 0.076
355.00 0.077
354.50 0.079
354.00 0.081
353.50 0.083
353.00 0.085
352.50 0.088
352.00 0.091
351.50 0.093
351.00 0.096
350.50 0.098
350.00 0.099
349.50 0.101
349.00 0.102
348.50 0.103
348.00 0.104
347.50 0.105
347.00 0.106
346.50 0.107
346.00 0.108
345.50 0.110
345.00 0.112
344.50 0.114
344.00 0.117
343.50 0.119
343.00 0.115
342.50 0.124
342.00 0.133
341.50 0.135
341.00 0.128
340.50 0.111
340.00 0.089
339.50 0.065
339.00 0.045
338.50 0.031
338.00 0.026
337.50 0.029
337.00 0.037
336.50 0.046
336.00 0.045
335.50 0.048
335.00 0.052
334.50 0.056
334.00 0.060
333.50 0.065
333.00 0.070
332.50 0.076
332.00 0.083
331.50 0.090
331.00 0.098
330.50 0.107
330.00 0.116
329.50 0.126
329.00 0.135
328.50 0.145
328.00 0.156
327.50 0.167
327.00 0.178
326.50 0.190
326.00 0.202
325.50 0.214
325.00 0.226
324.50 0.239
324.00 0.252
323.50 0.266
323.00 0.281
322.50 0.295
322.00 0.310
321.50 0.324
321.00 0.338
320.50 0.352
320.00 0.365
319.50 0.378
319.00 0.389
318.50 0.400
318.00 0.410
317.50 0.418
317.00 0.426
316.50 0.433
316.00 0.439
315.50 0.444
315.00 0.449
314.50 0.453
314.00 0.457
313.50 0.460
313.00 0.462
312.50 0.465
312.00 0.467
311.50 0.468
311.00 0.468
310.50 0.469
310.00 0.468
309.50 0.468
309.00 0.467
308.50 0.465
308.00 0.463
307.50 0.461
307.00 0.458
306.50 0.456
306.00 0.454
305.50 0.451
305.00 0.449
304.50 0.446
304.00 0.444
303.50 0.441
303.00 0.437
302.50 0.434
302.00 0.431
301.50 0.428
301.00 0.425
300.50 0.422
300.00 0.418
299.50 0.414
299.00 0.411
298.50 0.408
298.00 0.404
297.50 0.400
297.00 0.397
296.50 0.393
296.00 0.389
295.50 0.384
295.00 0.380
294.50 0.376
294.00 0.371
293.50 0.367
293.00 0.362
292.50 0.357
292.00 0.352
291.50 0.346
291.00 0.341
290.50 0.335
290.00 0.329
289.50 0.323
289.00 0.318
288.50 0.313
288.00 0.308
287.50 0.303
287.00 0.299
286.50 0.294
286.00 0.290
285.50 0.286
285.00 0.282
284.50 0.278
284.00 0.275
283.50 0.271
283.00 0.268
282.50 0.264
282.00 0.261
281.50 0.258
281.00 0.255
280.50 0.252
280.00 0.250
279.50 0.249
279.00 0.248
278.50 0.248
278.00 0.248
277.50 0.250
277.00 0.251
276.50 0.254
276.00 0.257
275.50 0.260
275.00 0.265
274.50 0.270
274.00 0.276
273.50 0.282
273.00 0.290
272.50 0.298
272.00 0.308
271.50 0.318
271.00 0.330
270.50 0.342
270.00 0.356
269.50 0.370
269.00 0.385
268.50 0.400
268.00 0.415
267.50 0.430
267.00 0.446
266.50 0.462
266.00 0.479
265.50 0.495
265.00 0.512
264.50 0.528
264.00 0.546
263.50 0.563
263.00 0.582
262.50 0.600
262.00 0.619
261.50 0.637
261.00 0.655
260.50 0.673
260.00 0.690
259.50 0.706
259.00 0.723
258.50 0.739
258.00 0.754
257.50 0.768
257.00 0.782
256.50 0.795
256.00 0.807
255.50 0.820
255.00 0.832
254.50 0.844
254.00 0.857
253.50 0.868
253.00 0.880
252.50 0.892
252.00 0.905
251.50 0.918
251.00 0.931
250.50 0.942
250.00 0.950
##END=
