##TITLE= WL Accuracy at 546.1nm
##JCAMP-DX= 4.24
##DATA TYPE= UV/VIS SPECTRUM
##ORIGIN= 
##OWNER= Benson
##DATE= 12:58:00, 05/23/2025
##SAMPLE DESCRIPTION= 
##SPECTROMETER/DATA SYSTEM= Hitachi Model U-3900H Spectrophotometer;
Serial Number: 2089-010;
ROM Version: 2J25300 07;
##INSTRUMENT PARAMETERS= Scan Speed= 300 nm/min;
Delay= 0 s;
Cycle Time= 0 min;
Replicates= 1;
Auto Zero before each run= On;
Wavelength of Auto Zero before each run= 400.00 nm;
Slit Width= 2 nm;
PMT Voltage= Auto;
Lamp Change Mode= Auto;
Lamp Change Wavelength= 340.00 nm;
Baseline Correction= User 1(User One);
High Resolution= Off;
D2 Lamp= On;
WI Lamp= On;
R/S Reverse= Off;
##DELTAX= -0.50
##PATH_LENGTH= 10.0mm
##XLABEL= nm
##YLABEL= Abs
##XUNITS= NANOMETERS
##YUNITS= ABSORBANCE
##XFACTOR= 1.0
##YFACTOR= 1.0
##FIRSTX= 400.00
##LASTX= 250.00
##NPOINTS= 301
##XYDATA= (X++(Y..Y))
400.00 0.000
399.50 0.000
399.00 0.000
398.50 0.000
398.00 0.000
397.50 0.000
397.00 0.000
396.50 0.000
396.00 0.000
395.50 0.000
395.00 0.000
394.50 0.000
394.00 0.000
393.50 0.000
393.00 0.000
392.50 0.000
392.00 0.001
391.50 0.001
391.00 0.001
390.50 0.001
390.00 0.002
389.50 0.002
389.00 0.002
388.50 0.002
388.00 0.002
387.50 0.002
387.00 0.002
386.50 0.002
386.00 0.002
385.50 0.002
385.00 0.002
384.50 0.002
384.00 0.003
383.50 0.003
383.00 0.004
382.50 0.003
382.00 0.002
381.50 0.002
381.00 0.003
380.50 0.006
380.00 0.011
379.50 0.015
379.00 0.020
378.50 0.023
378.00 0.025
377.50 0.026
377.00 0.025
376.50 0.025
376.00 0.028
375.50 0.028
375.00 0.029
374.50 0.029
374.00 0.030
373.50 0.030
373.00 0.031
372.50 0.032
372.00 0.033
371.50 0.035
371.00 0.036
370.50 0.037
370.00 0.038
369.50 0.039
369.00 0.040
368.50 0.041
368.00 0.042
367.50 0.043
367.00 0.043
366.50 0.044
366.00 0.045
365.50 0.045
365.00 0.046
364.50 0.046
364.00 0.047
363.50 0.048
363.00 0.050
362.50 0.052
362.00 0.054
361.50 0.056
361.00 0.057
360.50 0.059
360.00 0.060
359.50 0.061
359.00 0.062
358.50 0.063
358.00 0.064
357.50 0.065
357.00 0.066
356.50 0.067
356.00 0.069
355.50 0.070
355.00 0.072
354.50 0.073
354.00 0.075
353.50 0.077
353.00 0.079
352.50 0.081
352.00 0.084
351.50 0.086
351.00 0.088
350.50 0.090
350.00 0.092
349.50 0.093
349.00 0.093
348.50 0.094
348.00 0.095
347.50 0.096
347.00 0.097
346.50 0.098
346.00 0.099
345.50 0.100
345.00 0.102
344.50 0.103
344.00 0.104
343.50 0.106
343.00 0.101
342.50 0.110
342.00 0.118
341.50 0.120
341.00 0.111
340.50 0.092
340.00 0.069
339.50 0.043
339.00 0.022
338.50 0.006
338.00 -0.001
337.50 -0.001
337.00 0.005
336.50 0.011
336.00 0.007
335.50 0.007
335.00 0.008
334.50 0.008
334.00 0.008
333.50 0.008
333.00 0.008
332.50 0.009
332.00 0.009
331.50 0.009
331.00 0.009
330.50 0.009
330.00 0.010
329.50 0.010
329.00 0.010
328.50 0.011
328.00 0.012
327.50 0.012
327.00 0.012
326.50 0.012
326.00 0.012
325.50 0.013
325.00 0.013
324.50 0.013
324.00 0.014
323.50 0.014
323.00 0.015
322.50 0.015
322.00 0.016
321.50 0.016
321.00 0.017
320.50 0.017
320.00 0.017
319.50 0.018
319.00 0.018
318.50 0.018
318.00 0.019
317.50 0.019
317.00 0.020
316.50 0.020
316.00 0.020
315.50 0.021
315.00 0.021
314.50 0.022
314.00 0.023
313.50 0.024
313.00 0.025
312.50 0.026
312.00 0.027
311.50 0.029
311.00 0.031
310.50 0.033
310.00 0.036
309.50 0.040
309.00 0.043
308.50 0.047
308.00 0.052
307.50 0.058
307.00 0.064
306.50 0.070
306.00 0.078
305.50 0.087
305.00 0.096
304.50 0.106
304.00 0.117
303.50 0.129
303.00 0.142
302.50 0.157
302.00 0.172
301.50 0.188
301.00 0.204
300.50 0.220
300.00 0.235
299.50 0.250
299.00 0.265
298.50 0.279
298.00 0.292
297.50 0.304
297.00 0.315
296.50 0.326
296.00 0.336
295.50 0.345
295.00 0.355
294.50 0.364
294.00 0.372
293.50 0.379
293.00 0.385
292.50 0.391
292.00 0.396
291.50 0.399
291.00 0.402
290.50 0.404
290.00 0.404
289.50 0.404
289.00 0.402
288.50 0.401
288.00 0.399
287.50 0.396
287.00 0.394
286.50 0.391
286.00 0.387
285.50 0.382
285.00 0.377
284.50 0.372
284.00 0.366
283.50 0.359
283.00 0.352
282.50 0.345
282.00 0.336
281.50 0.327
281.00 0.318
280.50 0.309
280.00 0.299
279.50 0.290
279.00 0.281
278.50 0.271
278.00 0.263
277.50 0.255
277.00 0.248
276.50 0.240
276.00 0.233
275.50 0.226
275.00 0.219
274.50 0.212
274.00 0.206
273.50 0.199
273.00 0.192
272.50 0.186
272.00 0.180
271.50 0.175
271.00 0.170
270.50 0.165
270.00 0.162
269.50 0.159
269.00 0.156
268.50 0.154
268.00 0.152
267.50 0.151
267.00 0.151
266.50 0.151
266.00 0.151
265.50 0.152
265.00 0.153
264.50 0.155
264.00 0.158
263.50 0.161
263.00 0.165
262.50 0.170
262.00 0.176
261.50 0.183
261.00 0.190
260.50 0.198
260.00 0.208
259.50 0.217
259.00 0.228
258.50 0.240
258.00 0.252
257.50 0.264
257.00 0.278
256.50 0.291
256.00 0.306
255.50 0.320
255.00 0.336
254.50 0.352
254.00 0.369
253.50 0.385
253.00 0.402
252.50 0.418
252.00 0.435
251.50 0.451
251.00 0.468
250.50 0.481
250.00 0.490
##END=
