##TITLE= WL Accuracy at 546.1nm
##JCAMP-DX= 4.24
##DATA TYPE= UV/VIS SPECTRUM
##ORIGIN= 
##OWNER= Benson
##DATE= 13:18:52, 05/23/2025
##SAMPLE DESCRIPTION= 
##SPECTROMETER/DATA SYSTEM= Hitachi Model U-3900H Spectrophotometer;
Serial Number: 2089-010;
ROM Version: 2J25300 07;
##INSTRUMENT PARAMETERS= Scan Speed= 300 nm/min;
Delay= 0 s;
Cycle Time= 0 min;
Replicates= 1;
Auto Zero before each run= On;
Wavelength of Auto Zero before each run= 400.00 nm;
Slit Width= 2 nm;
PMT Voltage= Auto;
Lamp Change Mode= Auto;
Lamp Change Wavelength= 340.00 nm;
Baseline Correction= User 1(User One);
High Resolution= Off;
D2 Lamp= On;
WI Lamp= On;
R/S Reverse= Off;
##DELTAX= -0.50
##PATH_LENGTH= 10.0mm
##XLABEL= nm
##YLABEL= Abs
##XUNITS= NANOMETERS
##YUNITS= ABSORBANCE
##XFACTOR= 1.0
##YFACTOR= 1.0
##FIRSTX= 400.00
##LASTX= 250.00
##NPOINTS= 301
##XYDATA= (X++(Y..Y))
400.00 0.000
399.50 0.000
399.00 0.000
398.50 0.000
398.00 0.000
397.50 0.000
397.00 0.001
396.50 0.001
396.00 0.001
395.50 0.001
395.00 0.001
394.50 0.001
394.00 0.001
393.50 0.001
393.00 0.001
392.50 0.001
392.00 0.001
391.50 0.002
391.00 0.002
390.50 0.002
390.00 0.002
389.50 0.002
389.00 0.002
388.50 0.002
388.00 0.002
387.50 0.002
387.00 0.003
386.50 0.003
386.00 0.003
385.50 0.003
385.00 0.003
384.50 0.003
384.00 0.003
383.50 0.004
383.00 0.005
382.50 0.004
382.00 0.003
381.50 0.003
381.00 0.004
380.50 0.007
380.00 0.011
379.50 0.016
379.00 0.021
378.50 0.025
378.00 0.027
377.50 0.028
377.00 0.027
376.50 0.027
376.00 0.029
375.50 0.029
375.00 0.030
374.50 0.030
374.00 0.031
373.50 0.032
373.00 0.033
372.50 0.034
372.00 0.035
371.50 0.036
371.00 0.037
370.50 0.038
370.00 0.040
369.50 0.041
369.00 0.042
368.50 0.043
368.00 0.044
367.50 0.044
367.00 0.045
366.50 0.046
366.00 0.046
365.50 0.047
365.00 0.048
364.50 0.048
364.00 0.049
363.50 0.051
363.00 0.052
362.50 0.054
362.00 0.056
361.50 0.058
361.00 0.059
360.50 0.061
360.00 0.062
359.50 0.063
359.00 0.064
358.50 0.065
358.00 0.066
357.50 0.067
357.00 0.068
356.50 0.070
356.00 0.071
355.50 0.073
355.00 0.075
354.50 0.076
354.00 0.078
353.50 0.080
353.00 0.082
352.50 0.084
352.00 0.087
351.50 0.090
351.00 0.092
350.50 0.094
350.00 0.095
349.50 0.096
349.00 0.097
348.50 0.098
348.00 0.099
347.50 0.100
347.00 0.101
346.50 0.102
346.00 0.104
345.50 0.105
345.00 0.106
344.50 0.108
344.00 0.109
343.50 0.111
343.00 0.107
342.50 0.116
342.00 0.125
341.50 0.126
341.00 0.117
340.50 0.098
340.00 0.074
339.50 0.050
339.00 0.028
338.50 0.013
338.00 0.006
337.50 0.008
337.00 0.014
336.50 0.021
336.00 0.017
335.50 0.018
335.00 0.020
334.50 0.021
334.00 0.022
333.50 0.023
333.00 0.025
332.50 0.027
332.00 0.029
331.50 0.031
331.00 0.033
330.50 0.035
330.00 0.038
329.50 0.041
329.00 0.043
328.50 0.047
328.00 0.050
327.50 0.053
327.00 0.056
326.50 0.059
326.00 0.062
325.50 0.065
325.00 0.069
324.50 0.072
324.00 0.076
323.50 0.080
323.00 0.084
322.50 0.088
322.00 0.092
321.50 0.096
321.00 0.100
320.50 0.103
320.00 0.107
319.50 0.111
319.00 0.114
318.50 0.117
318.00 0.119
317.50 0.122
317.00 0.124
316.50 0.126
316.00 0.128
315.50 0.130
315.00 0.132
314.50 0.133
314.00 0.135
313.50 0.136
313.00 0.137
312.50 0.139
312.00 0.140
311.50 0.142
311.00 0.143
310.50 0.145
310.00 0.148
309.50 0.150
309.00 0.153
308.50 0.155
308.00 0.158
307.50 0.162
307.00 0.166
306.50 0.170
306.00 0.175
305.50 0.181
305.00 0.187
304.50 0.194
304.00 0.202
303.50 0.210
303.00 0.219
302.50 0.229
302.00 0.239
301.50 0.250
301.00 0.261
300.50 0.272
300.00 0.283
299.50 0.294
299.00 0.304
298.50 0.314
298.00 0.322
297.50 0.330
297.00 0.338
296.50 0.345
296.00 0.351
295.50 0.357
295.00 0.363
294.50 0.368
294.00 0.373
293.50 0.377
293.00 0.381
292.50 0.384
292.00 0.386
291.50 0.387
291.00 0.388
290.50 0.388
290.00 0.387
289.50 0.385
289.00 0.383
288.50 0.380
288.00 0.377
287.50 0.375
287.00 0.372
286.50 0.368
286.00 0.364
285.50 0.360
285.00 0.356
284.50 0.351
284.00 0.345
283.50 0.340
283.00 0.334
282.50 0.327
282.00 0.320
281.50 0.313
281.00 0.305
280.50 0.297
280.00 0.290
279.50 0.283
279.00 0.276
278.50 0.269
278.00 0.263
277.50 0.258
277.00 0.252
276.50 0.247
276.00 0.243
275.50 0.239
275.00 0.235
274.50 0.231
274.00 0.227
273.50 0.224
273.00 0.221
272.50 0.219
272.00 0.217
271.50 0.216
271.00 0.215
270.50 0.215
270.00 0.216
269.50 0.217
269.00 0.218
268.50 0.221
268.00 0.224
267.50 0.227
267.00 0.230
266.50 0.235
266.00 0.239
265.50 0.244
265.00 0.250
264.50 0.256
264.00 0.262
263.50 0.269
263.00 0.277
262.50 0.285
262.00 0.294
261.50 0.304
261.00 0.314
260.50 0.325
260.00 0.336
259.50 0.348
259.00 0.361
258.50 0.374
258.00 0.387
257.50 0.400
257.00 0.414
256.50 0.428
256.00 0.442
255.50 0.457
255.00 0.472
254.50 0.487
254.00 0.503
253.50 0.519
253.00 0.534
252.50 0.549
252.00 0.566
251.50 0.583
251.00 0.598
250.50 0.611
250.00 0.620
##END=
