##TITLE= WL Accuracy at 546.1nm
##JCAMP-DX= 4.24
##DATA TYPE= UV/VIS SPECTRUM
##ORIGIN= 
##OWNER= Benson
##DATE= 13:09:14, 05/23/2025
##SAMPLE DESCRIPTION= 
##SPECTROMETER/DATA SYSTEM= Hitachi Model U-3900H Spectrophotometer;
Serial Number: 2089-010;
ROM Version: 2J25300 07;
##INSTRUMENT PARAMETERS= Scan Speed= 300 nm/min;
Delay= 0 s;
Cycle Time= 0 min;
Replicates= 1;
Auto Zero before each run= On;
Wavelength of Auto Zero before each run= 400.00 nm;
Slit Width= 2 nm;
PMT Voltage= Auto;
Lamp Change Mode= Auto;
Lamp Change Wavelength= 340.00 nm;
Baseline Correction= User 1(User One);
High Resolution= Off;
D2 Lamp= On;
WI Lamp= On;
R/S Reverse= Off;
##DELTAX= -0.50
##PATH_LENGTH= 10.0mm
##XLABEL= nm
##YLABEL= Abs
##XUNITS= NANOMETERS
##YUNITS= ABSORBANCE
##XFACTOR= 1.0
##YFACTOR= 1.0
##FIRSTX= 400.00
##LASTX= 250.00
##NPOINTS= 301
##XYDATA= (X++(Y..Y))
400.00 0.000
399.50 0.000
399.00 0.000
398.50 0.000
398.00 0.000
397.50 0.000
397.00 0.000
396.50 0.001
396.00 0.001
395.50 0.001
395.00 0.000
394.50 0.000
394.00 0.000
393.50 0.000
393.00 0.001
392.50 0.001
392.00 0.002
391.50 0.002
391.00 0.002
390.50 0.002
390.00 0.001
389.50 0.001
389.00 0.002
388.50 0.002
388.00 0.002
387.50 0.003
387.00 0.003
386.50 0.003
386.00 0.003
385.50 0.003
385.00 0.003
384.50 0.003
384.00 0.003
383.50 0.004
383.00 0.005
382.50 0.004
382.00 0.002
381.50 0.002
381.00 0.004
380.50 0.007
380.00 0.012
379.50 0.017
379.00 0.022
378.50 0.025
378.00 0.027
377.50 0.028
377.00 0.027
376.50 0.027
376.00 0.028
375.50 0.029
375.00 0.030
374.50 0.031
374.00 0.031
373.50 0.032
373.00 0.033
372.50 0.034
372.00 0.035
371.50 0.036
371.00 0.037
370.50 0.038
370.00 0.039
369.50 0.040
369.00 0.042
368.50 0.043
368.00 0.044
367.50 0.044
367.00 0.045
366.50 0.045
366.00 0.046
365.50 0.047
365.00 0.047
364.50 0.048
364.00 0.049
363.50 0.051
363.00 0.052
362.50 0.054
362.00 0.056
361.50 0.057
361.00 0.059
360.50 0.060
360.00 0.062
359.50 0.063
359.00 0.064
358.50 0.065
358.00 0.065
357.50 0.067
357.00 0.068
356.50 0.069
356.00 0.071
355.50 0.072
355.00 0.074
354.50 0.075
354.00 0.077
353.50 0.079
353.00 0.081
352.50 0.084
352.00 0.086
351.50 0.089
351.00 0.091
350.50 0.092
350.00 0.093
349.50 0.094
349.00 0.095
348.50 0.097
348.00 0.098
347.50 0.099
347.00 0.100
346.50 0.101
346.00 0.101
345.50 0.102
345.00 0.104
344.50 0.105
344.00 0.107
343.50 0.109
343.00 0.105
342.50 0.113
342.00 0.121
341.50 0.122
341.00 0.113
340.50 0.095
340.00 0.071
339.50 0.046
339.00 0.024
338.50 0.009
338.00 0.002
337.50 0.002
337.00 0.008
336.50 0.014
336.00 0.010
335.50 0.010
335.00 0.011
334.50 0.011
334.00 0.011
333.50 0.012
333.00 0.012
332.50 0.013
332.00 0.014
331.50 0.014
331.00 0.014
330.50 0.015
330.00 0.015
329.50 0.016
329.00 0.017
328.50 0.018
328.00 0.019
327.50 0.019
327.00 0.020
326.50 0.020
326.00 0.021
325.50 0.022
325.00 0.023
324.50 0.024
324.00 0.025
323.50 0.025
323.00 0.026
322.50 0.027
322.00 0.028
321.50 0.029
321.00 0.029
320.50 0.030
320.00 0.031
319.50 0.032
319.00 0.033
318.50 0.034
318.00 0.035
317.50 0.036
317.00 0.036
316.50 0.037
316.00 0.037
315.50 0.038
315.00 0.038
314.50 0.039
314.00 0.040
313.50 0.041
313.00 0.042
312.50 0.043
312.00 0.045
311.50 0.046
311.00 0.048
310.50 0.051
310.00 0.053
309.50 0.057
309.00 0.061
308.50 0.065
308.00 0.069
307.50 0.075
307.00 0.080
306.50 0.086
306.00 0.093
305.50 0.102
305.00 0.111
304.50 0.120
304.00 0.131
303.50 0.143
303.00 0.155
302.50 0.169
302.00 0.183
301.50 0.199
301.00 0.214
300.50 0.230
300.00 0.244
299.50 0.259
299.00 0.273
298.50 0.286
298.00 0.299
297.50 0.310
297.00 0.321
296.50 0.332
296.00 0.341
295.50 0.350
295.00 0.359
294.50 0.367
294.00 0.375
293.50 0.381
293.00 0.387
292.50 0.393
292.00 0.397
291.50 0.401
291.00 0.403
290.50 0.405
290.00 0.405
289.50 0.405
289.00 0.403
288.50 0.402
288.00 0.399
287.50 0.397
287.00 0.394
286.50 0.391
286.00 0.387
285.50 0.383
285.00 0.378
284.50 0.373
284.00 0.368
283.50 0.361
283.00 0.354
282.50 0.346
282.00 0.338
281.50 0.330
281.00 0.321
280.50 0.312
280.00 0.303
279.50 0.294
279.00 0.285
278.50 0.276
278.00 0.268
277.50 0.261
277.00 0.254
276.50 0.247
276.00 0.240
275.50 0.233
275.00 0.227
274.50 0.220
274.00 0.214
273.50 0.208
273.00 0.202
272.50 0.197
272.00 0.191
271.50 0.186
271.00 0.182
270.50 0.178
270.00 0.175
269.50 0.173
269.00 0.171
268.50 0.169
268.00 0.168
267.50 0.168
267.00 0.168
266.50 0.169
266.00 0.170
265.50 0.171
265.00 0.173
264.50 0.176
264.00 0.179
263.50 0.183
263.00 0.188
262.50 0.193
262.00 0.200
261.50 0.207
261.00 0.215
260.50 0.223
260.00 0.233
259.50 0.244
259.00 0.255
258.50 0.267
258.00 0.279
257.50 0.292
257.00 0.306
256.50 0.320
256.00 0.334
255.50 0.349
255.00 0.365
254.50 0.381
254.00 0.398
253.50 0.414
253.00 0.431
252.50 0.448
252.00 0.465
251.50 0.482
251.00 0.499
250.50 0.512
250.00 0.521
##END=
