##TITLE= WL Accuracy at 546.1nm
##JCAMP-DX= 4.24
##DATA TYPE= UV/VIS SPECTRUM
##ORIGIN= 
##OWNER= Benson
##DATE= 14:12:34, 05/23/2025
##SAMPLE DESCRIPTION= 
##SPECTROMETER/DATA SYSTEM= Hitachi Model U-3900H Spectrophotometer;
Serial Number: 2089-010;
ROM Version: 2J25300 07;
##INSTRUMENT PARAMETERS= Scan Speed= 300 nm/min;
Delay= 0 s;
Cycle Time= 0 min;
Replicates= 1;
Auto Zero before each run= On;
Wavelength of Auto Zero before each run= 400.00 nm;
Slit Width= 2 nm;
PMT Voltage= Auto;
Lamp Change Mode= Auto;
Lamp Change Wavelength= 340.00 nm;
Baseline Correction= User 1(User One);
High Resolution= Off;
D2 Lamp= On;
WI Lamp= On;
R/S Reverse= Off;
##DELTAX= -0.50
##PATH_LENGTH= 10.0mm
##XLABEL= nm
##YLABEL= Abs
##XUNITS= NANOMETERS
##YUNITS= ABSORBANCE
##XFACTOR= 1.0
##YFACTOR= 1.0
##FIRSTX= 400.00
##LASTX= 250.00
##NPOINTS= 301
##XYDATA= (X++(Y..Y))
400.00 0.001
399.50 0.002
399.00 0.002
398.50 0.003
398.00 0.004
397.50 0.005
397.00 0.006
396.50 0.007
396.00 0.007
395.50 0.008
395.00 0.009
394.50 0.009
394.00 0.010
393.50 0.011
393.00 0.012
392.50 0.013
392.00 0.014
391.50 0.015
391.00 0.016
390.50 0.017
390.00 0.018
389.50 0.019
389.00 0.020
388.50 0.021
388.00 0.022
387.50 0.023
387.00 0.024
386.50 0.025
386.00 0.026
385.50 0.027
385.00 0.028
384.50 0.029
384.00 0.029
383.50 0.030
383.00 0.032
382.50 0.032
382.00 0.032
381.50 0.033
381.00 0.036
380.50 0.040
380.00 0.045
379.50 0.050
379.00 0.056
378.50 0.061
378.00 0.064
377.50 0.065
377.00 0.066
376.50 0.066
376.00 0.069
375.50 0.070
375.00 0.072
374.50 0.073
374.00 0.075
373.50 0.077
373.00 0.079
372.50 0.080
372.00 0.082
371.50 0.085
371.00 0.086
370.50 0.088
370.00 0.090
369.50 0.092
369.00 0.094
368.50 0.096
368.00 0.098
367.50 0.100
367.00 0.102
366.50 0.103
366.00 0.105
365.50 0.106
365.00 0.107
364.50 0.109
364.00 0.111
363.50 0.113
363.00 0.116
362.50 0.118
362.00 0.121
361.50 0.124
361.00 0.126
360.50 0.128
360.00 0.131
359.50 0.133
359.00 0.135
358.50 0.137
358.00 0.139
357.50 0.141
357.00 0.143
356.50 0.145
356.00 0.147
355.50 0.150
355.00 0.152
354.50 0.155
354.00 0.157
353.50 0.160
353.00 0.163
352.50 0.166
352.00 0.170
351.50 0.173
351.00 0.177
350.50 0.180
350.00 0.183
349.50 0.185
349.00 0.186
348.50 0.189
348.00 0.190
347.50 0.193
347.00 0.195
346.50 0.197
346.00 0.200
345.50 0.203
345.00 0.205
344.50 0.208
344.00 0.211
343.50 0.214
343.00 0.212
342.50 0.222
342.00 0.233
341.50 0.237
341.00 0.231
340.50 0.215
340.00 0.194
339.50 0.171
339.00 0.153
338.50 0.140
338.00 0.136
337.50 0.141
337.00 0.152
336.50 0.163
336.00 0.163
335.50 0.169
335.00 0.175
334.50 0.181
334.00 0.188
333.50 0.196
333.00 0.204
332.50 0.213
332.00 0.223
331.50 0.234
331.00 0.246
330.50 0.259
330.00 0.273
329.50 0.287
329.00 0.301
328.50 0.316
328.00 0.331
327.50 0.347
327.00 0.363
326.50 0.380
326.00 0.397
325.50 0.415
325.00 0.433
324.50 0.452
324.00 0.471
323.50 0.491
323.00 0.511
322.50 0.532
322.00 0.553
321.50 0.574
321.00 0.594
320.50 0.615
320.00 0.633
319.50 0.651
319.00 0.667
318.50 0.683
318.00 0.698
317.50 0.711
317.00 0.723
316.50 0.734
316.00 0.744
315.50 0.752
315.00 0.759
314.50 0.767
314.00 0.773
313.50 0.779
313.00 0.784
312.50 0.789
312.00 0.793
311.50 0.795
311.00 0.797
310.50 0.800
310.00 0.800
309.50 0.800
309.00 0.800
308.50 0.800
308.00 0.798
307.50 0.795
307.00 0.792
306.50 0.789
306.00 0.785
305.50 0.781
305.00 0.777
304.50 0.772
304.00 0.767
303.50 0.762
303.00 0.755
302.50 0.749
302.00 0.742
301.50 0.736
301.00 0.729
300.50 0.722
300.00 0.715
299.50 0.707
299.00 0.700
298.50 0.693
298.00 0.687
297.50 0.680
297.00 0.674
296.50 0.668
296.00 0.662
295.50 0.655
295.00 0.649
294.50 0.643
294.00 0.637
293.50 0.631
293.00 0.625
292.50 0.619
292.00 0.613
291.50 0.608
291.00 0.603
290.50 0.598
290.00 0.594
289.50 0.589
289.00 0.585
288.50 0.581
288.00 0.577
287.50 0.574
287.00 0.572
286.50 0.570
286.00 0.568
285.50 0.566
285.00 0.564
284.50 0.562
284.00 0.561
283.50 0.560
283.00 0.560
282.50 0.559
282.00 0.560
281.50 0.562
281.00 0.563
280.50 0.565
280.00 0.568
279.50 0.572
279.00 0.575
278.50 0.580
278.00 0.585
277.50 0.591
277.00 0.597
276.50 0.604
276.00 0.613
275.50 0.622
275.00 0.631
274.50 0.642
274.00 0.654
273.50 0.667
273.00 0.681
272.50 0.696
272.00 0.713
271.50 0.730
271.00 0.749
270.50 0.770
270.00 0.791
269.50 0.813
269.00 0.835
268.50 0.858
268.00 0.881
267.50 0.904
267.00 0.927
266.50 0.950
266.00 0.973
265.50 0.996
265.00 1.020
264.50 1.044
264.00 1.069
263.50 1.093
263.00 1.119
262.50 1.144
262.00 1.170
261.50 1.194
261.00 1.220
260.50 1.244
260.00 1.267
259.50 1.288
259.00 1.310
258.50 1.330
258.00 1.349
257.50 1.367
257.00 1.385
256.50 1.401
256.00 1.417
255.50 1.432
255.00 1.448
254.50 1.463
254.00 1.478
253.50 1.493
253.00 1.508
252.50 1.524
252.00 1.541
251.50 1.560
251.00 1.579
250.50 1.595
250.00 1.606
##END=
