##TITLE= WL Accuracy at 546.1nm
##JCAMP-DX= 4.24
##DATA TYPE= UV/VIS SPECTRUM
##ORIGIN= 
##OWNER= Benson
##DATE= 12:50:58, 05/23/2025
##SAMPLE DESCRIPTION= 
##SPECTROMETER/DATA SYSTEM= Hitachi Model U-3900H Spectrophotometer;
Serial Number: 2089-010;
ROM Version: 2J25300 07;
##INSTRUMENT PARAMETERS= Scan Speed= 300 nm/min;
Delay= 0 s;
Cycle Time= 0 min;
Replicates= 1;
Auto Zero before each run= On;
Wavelength of Auto Zero before each run= 400.00 nm;
Slit Width= 2 nm;
PMT Voltage= Auto;
Lamp Change Mode= Auto;
Lamp Change Wavelength= 340.00 nm;
Baseline Correction= User 1(User One);
High Resolution= Off;
D2 Lamp= On;
WI Lamp= On;
R/S Reverse= Off;
##DELTAX= -0.50
##PATH_LENGTH= 10.0mm
##XLABEL= nm
##YLABEL= Abs
##XUNITS= NANOMETERS
##YUNITS= ABSORBANCE
##XFACTOR= 1.0
##YFACTOR= 1.0
##FIRSTX= 400.00
##LASTX= 250.00
##NPOINTS= 301
##XYDATA= (X++(Y..Y))
400.00 0.000
399.50 0.000
399.00 0.000
398.50 0.000
398.00 0.000
397.50 0.000
397.00 0.000
396.50 0.001
396.00 0.001
395.50 0.001
395.00 0.001
394.50 0.000
394.00 0.000
393.50 0.000
393.00 0.001
392.50 0.001
392.00 0.002
391.50 0.002
391.00 0.002
390.50 0.002
390.00 0.001
389.50 0.001
389.00 0.001
388.50 0.002
388.00 0.002
387.50 0.003
387.00 0.003
386.50 0.003
386.00 0.002
385.50 0.002
385.00 0.002
384.50 0.003
384.00 0.003
383.50 0.003
383.00 0.004
382.50 0.003
382.00 0.002
381.50 0.001
381.00 0.003
380.50 0.006
380.00 0.010
379.50 0.015
379.00 0.019
378.50 0.022
378.00 0.024
377.50 0.025
377.00 0.024
376.50 0.024
376.00 0.026
375.50 0.027
375.00 0.028
374.50 0.028
374.00 0.029
373.50 0.030
373.00 0.031
372.50 0.031
372.00 0.032
371.50 0.034
371.00 0.035
370.50 0.036
370.00 0.037
369.50 0.038
369.00 0.039
368.50 0.040
368.00 0.041
367.50 0.041
367.00 0.042
366.50 0.043
366.00 0.043
365.50 0.044
365.00 0.044
364.50 0.045
364.00 0.046
363.50 0.047
363.00 0.049
362.50 0.051
362.00 0.053
361.50 0.054
361.00 0.056
360.50 0.057
360.00 0.058
359.50 0.059
359.00 0.060
358.50 0.061
358.00 0.062
357.50 0.063
357.00 0.064
356.50 0.065
356.00 0.067
355.50 0.068
355.00 0.070
354.50 0.072
354.00 0.073
353.50 0.075
353.00 0.077
352.50 0.080
352.00 0.082
351.50 0.084
351.00 0.087
350.50 0.088
350.00 0.090
349.50 0.090
349.00 0.091
348.50 0.092
348.00 0.093
347.50 0.094
347.00 0.095
346.50 0.096
346.00 0.097
345.50 0.098
345.00 0.099
344.50 0.100
344.00 0.102
343.50 0.103
343.00 0.099
342.50 0.108
342.00 0.116
341.50 0.117
341.00 0.108
340.50 0.089
340.00 0.065
339.50 0.040
339.00 0.019
338.50 0.003
338.00 -0.004
337.50 -0.004
337.00 0.002
336.50 0.008
336.00 0.003
335.50 0.003
335.00 0.003
334.50 0.003
334.00 0.004
333.50 0.004
333.00 0.004
332.50 0.004
332.00 0.004
331.50 0.004
331.00 0.004
330.50 0.004
330.00 0.005
329.50 0.005
329.00 0.005
328.50 0.006
328.00 0.006
327.50 0.006
327.00 0.006
326.50 0.006
326.00 0.006
325.50 0.006
325.00 0.006
324.50 0.007
324.00 0.007
323.50 0.007
323.00 0.007
322.50 0.008
322.00 0.008
321.50 0.008
321.00 0.008
320.50 0.008
320.00 0.008
319.50 0.009
319.00 0.009
318.50 0.010
318.00 0.010
317.50 0.010
317.00 0.010
316.50 0.010
316.00 0.011
315.50 0.011
315.00 0.012
314.50 0.012
314.00 0.013
313.50 0.014
313.00 0.014
312.50 0.015
312.00 0.017
311.50 0.018
311.00 0.020
310.50 0.023
310.00 0.026
309.50 0.029
309.00 0.033
308.50 0.037
308.00 0.042
307.50 0.047
307.00 0.053
306.50 0.059
306.00 0.067
305.50 0.075
305.00 0.085
304.50 0.095
304.00 0.106
303.50 0.118
303.00 0.132
302.50 0.146
302.00 0.161
301.50 0.177
301.00 0.193
300.50 0.209
300.00 0.225
299.50 0.240
299.00 0.255
298.50 0.268
298.00 0.281
297.50 0.293
297.00 0.305
296.50 0.315
296.00 0.325
295.50 0.335
295.00 0.345
294.50 0.353
294.00 0.361
293.50 0.368
293.00 0.375
292.50 0.381
292.00 0.385
291.50 0.389
291.00 0.392
290.50 0.393
290.00 0.394
289.50 0.393
289.00 0.392
288.50 0.391
288.00 0.388
287.50 0.386
287.00 0.383
286.50 0.380
286.00 0.376
285.50 0.372
285.00 0.367
284.50 0.362
284.00 0.356
283.50 0.349
283.00 0.342
282.50 0.334
282.00 0.326
281.50 0.317
281.00 0.308
280.50 0.298
280.00 0.289
279.50 0.279
279.00 0.270
278.50 0.261
278.00 0.253
277.50 0.245
277.00 0.237
276.50 0.229
276.00 0.222
275.50 0.215
275.00 0.208
274.50 0.201
274.00 0.194
273.50 0.187
273.00 0.181
272.50 0.175
272.00 0.169
271.50 0.163
271.00 0.158
270.50 0.153
270.00 0.149
269.50 0.145
269.00 0.142
268.50 0.140
268.00 0.138
267.50 0.137
267.00 0.136
266.50 0.136
266.00 0.136
265.50 0.137
265.00 0.138
264.50 0.140
264.00 0.142
263.50 0.145
263.00 0.148
262.50 0.153
262.00 0.158
261.50 0.164
261.00 0.171
260.50 0.179
260.00 0.188
259.50 0.197
259.00 0.207
258.50 0.219
258.00 0.230
257.50 0.243
257.00 0.256
256.50 0.269
256.00 0.283
255.50 0.298
255.00 0.312
254.50 0.328
254.00 0.343
253.50 0.360
253.00 0.375
252.50 0.391
252.00 0.408
251.50 0.425
251.00 0.439
250.50 0.451
250.00 0.460
##END=
