##TITLE= WL Accuracy at 546.1nm
##JCAMP-DX= 4.24
##DATA TYPE= UV/VIS SPECTRUM
##ORIGIN= 
##OWNER= Benson
##DATE= 14:25:50, 05/23/2025
##SAMPLE DESCRIPTION= 
##SPECTROMETER/DATA SYSTEM= Hitachi Model U-3900H Spectrophotometer;
Serial Number: 2089-010;
ROM Version: 2J25300 07;
##INSTRUMENT PARAMETERS= Scan Speed= 300 nm/min;
Delay= 0 s;
Cycle Time= 0 min;
Replicates= 1;
Auto Zero before each run= On;
Wavelength of Auto Zero before each run= 400.00 nm;
Slit Width= 2 nm;
PMT Voltage= Auto;
Lamp Change Mode= Auto;
Lamp Change Wavelength= 340.00 nm;
Baseline Correction= User 1(User One);
High Resolution= Off;
D2 Lamp= On;
WI Lamp= On;
R/S Reverse= Off;
##DELTAX= -0.50
##PATH_LENGTH= 10.0mm
##XLABEL= nm
##YLABEL= Abs
##XUNITS= NANOMETERS
##YUNITS= ABSORBANCE
##XFACTOR= 1.0
##YFACTOR= 1.0
##FIRSTX= 400.00
##LASTX= 250.00
##NPOINTS= 301
##XYDATA= (X++(Y..Y))
400.00 0.000
399.50 0.000
399.00 0.000
398.50 0.000
398.00 0.000
397.50 0.001
397.00 0.001
396.50 0.001
396.00 0.001
395.50 0.001
395.00 0.001
394.50 0.001
394.00 0.001
393.50 0.001
393.00 0.001
392.50 0.001
392.00 0.002
391.50 0.002
391.00 0.002
390.50 0.002
390.00 0.002
389.50 0.002
389.00 0.003
388.50 0.003
388.00 0.003
387.50 0.003
387.00 0.003
386.50 0.003
386.00 0.004
385.50 0.004
385.00 0.004
384.50 0.004
384.00 0.004
383.50 0.004
383.00 0.005
382.50 0.004
382.00 0.003
381.50 0.003
381.00 0.005
380.50 0.008
380.00 0.013
379.50 0.017
379.00 0.022
378.50 0.025
378.00 0.027
377.50 0.027
377.00 0.027
376.50 0.027
376.00 0.029
375.50 0.030
375.00 0.031
374.50 0.031
374.00 0.032
373.50 0.033
373.00 0.034
372.50 0.034
372.00 0.035
371.50 0.037
371.00 0.038
370.50 0.039
370.00 0.040
369.50 0.041
369.00 0.043
368.50 0.044
368.00 0.045
367.50 0.045
367.00 0.046
366.50 0.046
366.00 0.047
365.50 0.048
365.00 0.048
364.50 0.049
364.00 0.051
363.50 0.052
363.00 0.053
362.50 0.055
362.00 0.057
361.50 0.059
361.00 0.060
360.50 0.062
360.00 0.063
359.50 0.064
359.00 0.065
358.50 0.066
358.00 0.067
357.50 0.068
357.00 0.070
356.50 0.071
356.00 0.073
355.50 0.074
355.00 0.076
354.50 0.077
354.00 0.079
353.50 0.081
353.00 0.083
352.50 0.086
352.00 0.089
351.50 0.092
351.00 0.094
350.50 0.096
350.00 0.097
349.50 0.098
349.00 0.099
348.50 0.101
348.00 0.102
347.50 0.104
347.00 0.105
346.50 0.107
346.00 0.108
345.50 0.110
345.00 0.111
344.50 0.113
344.00 0.116
343.50 0.118
343.00 0.116
342.50 0.125
342.00 0.135
341.50 0.137
341.00 0.130
340.50 0.114
340.00 0.093
339.50 0.070
339.00 0.052
338.50 0.039
338.00 0.034
337.50 0.038
337.00 0.048
336.50 0.058
336.00 0.058
335.50 0.063
335.00 0.068
334.50 0.074
334.00 0.081
333.50 0.088
333.00 0.095
332.50 0.104
332.00 0.114
331.50 0.124
331.00 0.135
330.50 0.147
330.00 0.161
329.50 0.174
329.00 0.188
328.50 0.204
328.00 0.220
327.50 0.235
327.00 0.251
326.50 0.268
326.00 0.284
325.50 0.301
325.00 0.319
324.50 0.337
324.00 0.357
323.50 0.377
323.00 0.397
322.50 0.418
322.00 0.438
321.50 0.458
321.00 0.479
320.50 0.498
320.00 0.517
319.50 0.534
319.00 0.551
318.50 0.565
318.00 0.578
317.50 0.590
317.00 0.601
316.50 0.610
316.00 0.619
315.50 0.626
315.00 0.633
314.50 0.638
314.00 0.643
313.50 0.647
313.00 0.650
312.50 0.653
312.00 0.654
311.50 0.655
311.00 0.655
310.50 0.654
310.00 0.652
309.50 0.650
309.00 0.647
308.50 0.642
308.00 0.637
307.50 0.632
307.00 0.626
306.50 0.620
306.00 0.613
305.50 0.606
305.00 0.598
304.50 0.589
304.00 0.580
303.50 0.570
303.00 0.560
302.50 0.549
302.00 0.538
301.50 0.526
301.00 0.515
300.50 0.503
300.00 0.490
299.50 0.478
299.00 0.467
298.50 0.456
298.00 0.445
297.50 0.435
297.00 0.424
296.50 0.413
296.00 0.403
295.50 0.393
295.00 0.383
294.50 0.373
294.00 0.363
293.50 0.353
293.00 0.343
292.50 0.333
292.00 0.323
291.50 0.314
291.00 0.305
290.50 0.296
290.00 0.287
289.50 0.279
289.00 0.272
288.50 0.265
288.00 0.259
287.50 0.253
287.00 0.248
286.50 0.243
286.00 0.238
285.50 0.234
285.00 0.230
284.50 0.227
284.00 0.224
283.50 0.222
283.00 0.220
282.50 0.218
282.00 0.217
281.50 0.216
281.00 0.216
280.50 0.217
280.00 0.218
279.50 0.221
279.00 0.224
278.50 0.228
278.00 0.232
277.50 0.237
277.00 0.242
276.50 0.249
276.00 0.257
275.50 0.265
275.00 0.274
274.50 0.285
274.00 0.295
273.50 0.308
273.00 0.321
272.50 0.337
272.00 0.353
271.50 0.370
271.00 0.389
270.50 0.409
270.00 0.430
269.50 0.452
269.00 0.474
268.50 0.497
268.00 0.519
267.50 0.543
267.00 0.565
266.50 0.588
266.00 0.611
265.50 0.635
265.00 0.659
264.50 0.682
264.00 0.706
263.50 0.731
263.00 0.755
262.50 0.779
262.00 0.803
261.50 0.828
261.00 0.852
260.50 0.875
260.00 0.896
259.50 0.918
259.00 0.937
258.50 0.956
258.00 0.973
257.50 0.989
257.00 1.004
256.50 1.018
256.00 1.032
255.50 1.045
255.00 1.058
254.50 1.071
254.00 1.083
253.50 1.096
253.00 1.108
252.50 1.120
252.00 1.134
251.50 1.150
251.00 1.165
250.50 1.178
250.00 1.188
##END=
