##TITLE= WL Accuracy at 546.1nm
##JCAMP-DX= 4.24
##DATA TYPE= UV/VIS SPECTRUM
##ORIGIN= 
##OWNER= Benson
##DATE= 14:07:24, 05/23/2025
##SAMPLE DESCRIPTION= 
##SPECTROMETER/DATA SYSTEM= Hitachi Model U-3900H Spectrophotometer;
Serial Number: 2089-010;
ROM Version: 2J25300 07;
##INSTRUMENT PARAMETERS= Scan Speed= 300 nm/min;
Delay= 0 s;
Cycle Time= 0 min;
Replicates= 1;
Auto Zero before each run= On;
Wavelength of Auto Zero before each run= 400.00 nm;
Slit Width= 2 nm;
PMT Voltage= Auto;
Lamp Change Mode= Auto;
Lamp Change Wavelength= 340.00 nm;
Baseline Correction= User 1(User One);
High Resolution= Off;
D2 Lamp= On;
WI Lamp= On;
R/S Reverse= Off;
##DELTAX= -0.50
##PATH_LENGTH= 10.0mm
##XLABEL= nm
##YLABEL= Abs
##XUNITS= NANOMETERS
##YUNITS= ABSORBANCE
##XFACTOR= 1.0
##YFACTOR= 1.0
##FIRSTX= 400.00
##LASTX= 250.00
##NPOINTS= 301
##XYDATA= (X++(Y..Y))
400.00 0.000
399.50 0.000
399.00 0.000
398.50 0.000
398.00 0.000
397.50 0.001
397.00 0.001
396.50 0.001
396.00 0.001
395.50 0.001
395.00 0.001
394.50 0.001
394.00 0.001
393.50 0.001
393.00 0.001
392.50 0.002
392.00 0.002
391.50 0.003
391.00 0.003
390.50 0.002
390.00 0.002
389.50 0.002
389.00 0.002
388.50 0.003
388.00 0.003
387.50 0.004
387.00 0.004
386.50 0.004
386.00 0.004
385.50 0.004
385.00 0.004
384.50 0.004
384.00 0.005
383.50 0.005
383.00 0.006
382.50 0.005
382.00 0.004
381.50 0.004
381.00 0.005
380.50 0.008
380.00 0.012
379.50 0.017
379.00 0.022
378.50 0.025
378.00 0.027
377.50 0.028
377.00 0.027
376.50 0.028
376.00 0.030
375.50 0.031
375.00 0.031
374.50 0.032
374.00 0.032
373.50 0.033
373.00 0.033
372.50 0.034
372.00 0.036
371.50 0.037
371.00 0.038
370.50 0.040
370.00 0.041
369.50 0.042
369.00 0.043
368.50 0.044
368.00 0.045
367.50 0.046
367.00 0.046
366.50 0.047
366.00 0.048
365.50 0.049
365.00 0.049
364.50 0.050
364.00 0.051
363.50 0.052
363.00 0.054
362.50 0.056
362.00 0.058
361.50 0.060
361.00 0.061
360.50 0.063
360.00 0.064
359.50 0.065
359.00 0.066
358.50 0.067
358.00 0.068
357.50 0.070
357.00 0.071
356.50 0.073
356.00 0.074
355.50 0.076
355.00 0.077
354.50 0.079
354.00 0.080
353.50 0.082
353.00 0.085
352.50 0.087
352.00 0.090
351.50 0.092
351.00 0.095
350.50 0.097
350.00 0.098
349.50 0.100
349.00 0.101
348.50 0.102
348.00 0.104
347.50 0.105
347.00 0.106
346.50 0.107
346.00 0.108
345.50 0.110
345.00 0.112
344.50 0.115
344.00 0.117
343.50 0.119
343.00 0.116
342.50 0.125
342.00 0.134
341.50 0.137
341.00 0.129
340.50 0.113
340.00 0.091
339.50 0.068
339.00 0.048
338.50 0.035
338.00 0.030
337.50 0.033
337.00 0.043
336.50 0.052
336.00 0.051
335.50 0.056
335.00 0.061
334.50 0.065
334.00 0.071
333.50 0.077
333.00 0.084
332.50 0.091
332.00 0.100
331.50 0.109
331.00 0.119
330.50 0.130
330.00 0.141
329.50 0.153
329.00 0.166
328.50 0.179
328.00 0.194
327.50 0.207
327.00 0.221
326.50 0.235
326.00 0.250
325.50 0.265
325.00 0.281
324.50 0.297
324.00 0.315
323.50 0.332
323.00 0.351
322.50 0.368
322.00 0.386
321.50 0.404
321.00 0.423
320.50 0.440
320.00 0.457
319.50 0.472
319.00 0.487
318.50 0.500
318.00 0.512
317.50 0.523
317.00 0.533
316.50 0.541
316.00 0.549
315.50 0.555
315.00 0.562
314.50 0.567
314.00 0.571
313.50 0.575
313.00 0.578
312.50 0.580
312.00 0.582
311.50 0.582
311.00 0.583
310.50 0.582
310.00 0.581
309.50 0.579
309.00 0.577
308.50 0.574
308.00 0.570
307.50 0.566
307.00 0.562
306.50 0.557
306.00 0.552
305.50 0.546
305.00 0.541
304.50 0.534
304.00 0.527
303.50 0.520
303.00 0.513
302.50 0.505
302.00 0.497
301.50 0.489
301.00 0.480
300.50 0.472
300.00 0.463
299.50 0.455
299.00 0.446
298.50 0.438
298.00 0.429
297.50 0.421
297.00 0.413
296.50 0.406
296.00 0.398
295.50 0.390
295.00 0.382
294.50 0.374
294.00 0.366
293.50 0.358
293.00 0.350
292.50 0.342
292.00 0.334
291.50 0.326
291.00 0.318
290.50 0.311
290.00 0.303
289.50 0.296
289.00 0.290
288.50 0.283
288.00 0.277
287.50 0.272
287.00 0.267
286.50 0.262
286.00 0.258
285.50 0.254
285.00 0.250
284.50 0.247
284.00 0.244
283.50 0.241
283.00 0.238
282.50 0.235
282.00 0.233
281.50 0.232
281.00 0.230
280.50 0.230
280.00 0.230
279.50 0.231
279.00 0.232
278.50 0.234
278.00 0.237
277.50 0.241
277.00 0.245
276.50 0.251
276.00 0.256
275.50 0.262
275.00 0.270
274.50 0.278
274.00 0.287
273.50 0.297
273.00 0.309
272.50 0.322
272.00 0.335
271.50 0.350
271.00 0.366
270.50 0.384
270.00 0.402
269.50 0.421
269.00 0.440
268.50 0.460
268.00 0.479
267.50 0.500
267.00 0.520
266.50 0.541
266.00 0.560
265.50 0.582
265.00 0.602
264.50 0.624
264.00 0.645
263.50 0.667
263.00 0.689
262.50 0.711
262.00 0.732
261.50 0.755
261.00 0.776
260.50 0.796
260.00 0.816
259.50 0.836
259.00 0.853
258.50 0.870
258.00 0.885
257.50 0.901
257.00 0.915
256.50 0.928
256.00 0.941
255.50 0.953
255.00 0.965
254.50 0.977
254.00 0.989
253.50 1.001
253.00 1.011
252.50 1.022
252.00 1.035
251.50 1.049
251.00 1.061
250.50 1.072
250.00 1.080
##END=
