##TITLE= WL Accuracy at 546.1nm
##JCAMP-DX= 4.24
##DATA TYPE= UV/VIS SPECTRUM
##ORIGIN= 
##OWNER= Benson
##DATE= 13:41:34, 05/23/2025
##SAMPLE DESCRIPTION= 
##SPECTROMETER/DATA SYSTEM= Hitachi Model U-3900H Spectrophotometer;
Serial Number: 2089-010;
ROM Version: 2J25300 07;
##INSTRUMENT PARAMETERS= Scan Speed= 300 nm/min;
Delay= 0 s;
Cycle Time= 0 min;
Replicates= 1;
Auto Zero before each run= On;
Wavelength of Auto Zero before each run= 400.00 nm;
Slit Width= 2 nm;
PMT Voltage= Auto;
Lamp Change Mode= Auto;
Lamp Change Wavelength= 340.00 nm;
Baseline Correction= User 1(User One);
High Resolution= Off;
D2 Lamp= On;
WI Lamp= On;
R/S Reverse= Off;
##DELTAX= -0.50
##PATH_LENGTH= 10.0mm
##XLABEL= nm
##YLABEL= Abs
##XUNITS= NANOMETERS
##YUNITS= ABSORBANCE
##XFACTOR= 1.0
##YFACTOR= 1.0
##FIRSTX= 400.00
##LASTX= 250.00
##NPOINTS= 301
##XYDATA= (X++(Y..Y))
400.00 0.000
399.50 0.000
399.00 0.000
398.50 0.000
398.00 0.000
397.50 0.000
397.00 0.000
396.50 0.001
396.00 0.001
395.50 0.001
395.00 0.001
394.50 0.001
394.00 0.000
393.50 0.000
393.00 0.001
392.50 0.001
392.00 0.002
391.50 0.002
391.00 0.002
390.50 0.002
390.00 0.002
389.50 0.002
389.00 0.002
388.50 0.002
388.00 0.003
387.50 0.003
387.00 0.003
386.50 0.003
386.00 0.003
385.50 0.003
385.00 0.003
384.50 0.004
384.00 0.004
383.50 0.004
383.00 0.005
382.50 0.004
382.00 0.003
381.50 0.003
381.00 0.004
380.50 0.007
380.00 0.012
379.50 0.017
379.00 0.022
378.50 0.025
378.00 0.027
377.50 0.028
377.00 0.027
376.50 0.027
376.00 0.028
375.50 0.029
375.00 0.030
374.50 0.031
374.00 0.032
373.50 0.033
373.00 0.033
372.50 0.034
372.00 0.035
371.50 0.036
371.00 0.038
370.50 0.039
370.00 0.040
369.50 0.041
369.00 0.042
368.50 0.043
368.00 0.044
367.50 0.045
367.00 0.045
366.50 0.046
366.00 0.047
365.50 0.047
365.00 0.048
364.50 0.049
364.00 0.050
363.50 0.052
363.00 0.053
362.50 0.055
362.00 0.057
361.50 0.058
361.00 0.060
360.50 0.061
360.00 0.063
359.50 0.064
359.00 0.065
358.50 0.066
358.00 0.067
357.50 0.068
357.00 0.069
356.50 0.071
356.00 0.072
355.50 0.074
355.00 0.075
354.50 0.077
354.00 0.078
353.50 0.081
353.00 0.083
352.50 0.086
352.00 0.088
351.50 0.091
351.00 0.093
350.50 0.095
350.00 0.096
349.50 0.097
349.00 0.099
348.50 0.100
348.00 0.101
347.50 0.102
347.00 0.103
346.50 0.104
346.00 0.105
345.50 0.106
345.00 0.108
344.50 0.110
344.00 0.112
343.50 0.114
343.00 0.110
342.50 0.119
342.00 0.128
341.50 0.130
341.00 0.122
340.50 0.104
340.00 0.081
339.50 0.057
339.00 0.036
338.50 0.022
338.00 0.015
337.50 0.017
337.00 0.025
336.50 0.033
336.00 0.030
335.50 0.033
335.00 0.035
334.50 0.038
334.00 0.040
333.50 0.044
333.00 0.047
332.50 0.051
332.00 0.056
331.50 0.061
331.00 0.066
330.50 0.072
330.00 0.078
329.50 0.084
329.00 0.091
328.50 0.098
328.00 0.105
327.50 0.112
327.00 0.119
326.50 0.127
326.00 0.135
325.50 0.143
325.00 0.151
324.50 0.160
324.00 0.169
323.50 0.178
323.00 0.187
322.50 0.197
322.00 0.207
321.50 0.216
321.00 0.225
320.50 0.235
320.00 0.244
319.50 0.252
319.00 0.259
318.50 0.267
318.00 0.273
317.50 0.278
317.00 0.283
316.50 0.288
316.00 0.292
315.50 0.296
315.00 0.299
314.50 0.303
314.00 0.305
313.50 0.307
313.00 0.310
312.50 0.312
312.00 0.313
311.50 0.314
311.00 0.315
310.50 0.316
310.00 0.317
309.50 0.318
309.00 0.319
308.50 0.319
308.00 0.320
307.50 0.320
307.00 0.320
306.50 0.321
306.00 0.322
305.50 0.323
305.00 0.325
304.50 0.326
304.00 0.328
303.50 0.331
303.00 0.333
302.50 0.336
302.00 0.340
301.50 0.343
301.00 0.346
300.50 0.350
300.00 0.353
299.50 0.356
299.00 0.358
298.50 0.361
298.00 0.363
297.50 0.365
297.00 0.366
296.50 0.367
296.00 0.368
295.50 0.368
295.00 0.368
294.50 0.369
294.00 0.369
293.50 0.368
293.00 0.367
292.50 0.366
292.00 0.364
291.50 0.362
291.00 0.359
290.50 0.356
290.00 0.352
289.50 0.348
289.00 0.344
288.50 0.340
288.00 0.336
287.50 0.332
287.00 0.329
286.50 0.325
286.00 0.321
285.50 0.316
285.00 0.312
284.50 0.308
284.00 0.304
283.50 0.299
283.00 0.295
282.50 0.290
282.00 0.285
281.50 0.280
281.00 0.275
280.50 0.270
280.00 0.265
279.50 0.261
279.00 0.257
278.50 0.254
278.00 0.251
277.50 0.249
277.00 0.248
276.50 0.247
276.00 0.246
275.50 0.246
275.00 0.247
274.50 0.248
274.00 0.249
273.50 0.251
273.00 0.254
272.50 0.258
272.00 0.262
271.50 0.267
271.00 0.273
270.50 0.279
270.00 0.287
269.50 0.295
269.00 0.303
268.50 0.312
268.00 0.322
267.50 0.332
267.00 0.342
266.50 0.353
266.00 0.364
265.50 0.375
265.00 0.386
264.50 0.398
264.00 0.410
263.50 0.423
263.00 0.436
262.50 0.449
262.00 0.464
261.50 0.478
261.00 0.493
260.50 0.507
260.00 0.522
259.50 0.536
259.00 0.551
258.50 0.565
258.00 0.579
257.50 0.592
257.00 0.606
256.50 0.620
256.00 0.633
255.50 0.646
255.00 0.660
254.50 0.673
254.00 0.687
253.50 0.701
253.00 0.715
252.50 0.728
252.00 0.742
251.50 0.757
251.00 0.771
250.50 0.783
250.00 0.791
##END=
