##TITLE= WL Accuracy at 546.1nm
##JCAMP-DX= 4.24
##DATA TYPE= UV/VIS SPECTRUM
##ORIGIN= 
##OWNER= Benson
##DATE= 13:24:55, 05/23/2025
##SAMPLE DESCRIPTION= 
##SPECTROMETER/DATA SYSTEM= Hitachi Model U-3900H Spectrophotometer;
Serial Number: 2089-010;
ROM Version: 2J25300 07;
##INSTRUMENT PARAMETERS= Scan Speed= 300 nm/min;
Delay= 0 s;
Cycle Time= 0 min;
Replicates= 1;
Auto Zero before each run= On;
Wavelength of Auto Zero before each run= 400.00 nm;
Slit Width= 2 nm;
PMT Voltage= Auto;
Lamp Change Mode= Auto;
Lamp Change Wavelength= 340.00 nm;
Baseline Correction= User 1(User One);
High Resolution= Off;
D2 Lamp= On;
WI Lamp= On;
R/S Reverse= Off;
##DELTAX= -0.50
##PATH_LENGTH= 10.0mm
##XLABEL= nm
##YLABEL= Abs
##XUNITS= NANOMETERS
##YUNITS= ABSORBANCE
##XFACTOR= 1.0
##YFACTOR= 1.0
##FIRSTX= 400.00
##LASTX= 250.00
##NPOINTS= 301
##XYDATA= (X++(Y..Y))
400.00 0.000
399.50 0.000
399.00 0.000
398.50 0.000
398.00 0.000
397.50 0.001
397.00 0.001
396.50 0.001
396.00 0.001
395.50 0.001
395.00 0.001
394.50 0.001
394.00 0.001
393.50 0.001
393.00 0.001
392.50 0.001
392.00 0.001
391.50 0.002
391.00 0.002
390.50 0.002
390.00 0.002
389.50 0.002
389.00 0.002
388.50 0.002
388.00 0.002
387.50 0.003
387.00 0.003
386.50 0.003
386.00 0.003
385.50 0.003
385.00 0.003
384.50 0.003
384.00 0.004
383.50 0.004
383.00 0.005
382.50 0.004
382.00 0.003
381.50 0.003
381.00 0.005
380.50 0.008
380.00 0.012
379.50 0.017
379.00 0.021
378.50 0.025
378.00 0.027
377.50 0.027
377.00 0.027
376.50 0.027
376.00 0.029
375.50 0.030
375.00 0.030
374.50 0.031
374.00 0.032
373.50 0.032
373.00 0.033
372.50 0.034
372.00 0.035
371.50 0.037
371.00 0.038
370.50 0.039
370.00 0.040
369.50 0.041
369.00 0.042
368.50 0.043
368.00 0.044
367.50 0.045
367.00 0.046
366.50 0.046
366.00 0.047
365.50 0.048
365.00 0.049
364.50 0.049
364.00 0.050
363.50 0.052
363.00 0.053
362.50 0.055
362.00 0.057
361.50 0.059
361.00 0.060
360.50 0.062
360.00 0.063
359.50 0.064
359.00 0.065
358.50 0.066
358.00 0.067
357.50 0.068
357.00 0.069
356.50 0.071
356.00 0.072
355.50 0.074
355.00 0.075
354.50 0.077
354.00 0.079
353.50 0.081
353.00 0.083
352.50 0.086
352.00 0.088
351.50 0.091
351.00 0.093
350.50 0.094
350.00 0.096
349.50 0.097
349.00 0.098
348.50 0.100
348.00 0.101
347.50 0.102
347.00 0.103
346.50 0.103
346.00 0.104
345.50 0.106
345.00 0.107
344.50 0.109
344.00 0.112
343.50 0.113
343.00 0.109
342.50 0.118
342.00 0.127
341.50 0.128
341.00 0.119
340.50 0.102
340.00 0.078
339.50 0.054
339.00 0.033
338.50 0.018
338.00 0.011
337.50 0.012
337.00 0.019
336.50 0.027
336.00 0.024
335.50 0.026
335.00 0.028
334.50 0.030
334.00 0.032
333.50 0.033
333.00 0.036
332.50 0.039
332.00 0.042
331.50 0.045
331.00 0.049
330.50 0.053
330.00 0.058
329.50 0.062
329.00 0.067
328.50 0.072
328.00 0.077
327.50 0.082
327.00 0.087
326.50 0.092
326.00 0.097
325.50 0.103
325.00 0.109
324.50 0.115
324.00 0.122
323.50 0.128
323.00 0.134
322.50 0.141
322.00 0.148
321.50 0.154
321.00 0.161
320.50 0.168
320.00 0.174
319.50 0.180
319.00 0.185
318.50 0.190
318.00 0.194
317.50 0.198
317.00 0.202
316.50 0.205
316.00 0.208
315.50 0.211
315.00 0.213
314.50 0.216
314.00 0.218
313.50 0.220
313.00 0.221
312.50 0.223
312.00 0.224
311.50 0.225
311.00 0.227
310.50 0.228
310.00 0.230
309.50 0.232
309.00 0.234
308.50 0.235
308.00 0.237
307.50 0.239
307.00 0.241
306.50 0.244
306.00 0.247
305.50 0.250
305.00 0.254
304.50 0.258
304.00 0.263
303.50 0.269
303.00 0.275
302.50 0.281
302.00 0.288
301.50 0.295
301.00 0.303
300.50 0.310
300.00 0.317
299.50 0.324
299.00 0.330
298.50 0.337
298.00 0.342
297.50 0.347
297.00 0.352
296.50 0.356
296.00 0.359
295.50 0.362
295.00 0.366
294.50 0.368
294.00 0.371
293.50 0.372
293.00 0.374
292.50 0.375
292.00 0.375
291.50 0.375
291.00 0.374
290.50 0.372
290.00 0.370
289.50 0.367
289.00 0.364
288.50 0.361
288.00 0.357
287.50 0.354
287.00 0.350
286.50 0.347
286.00 0.343
285.50 0.339
285.00 0.334
284.50 0.330
284.00 0.325
283.50 0.320
283.00 0.314
282.50 0.308
282.00 0.302
281.50 0.296
281.00 0.290
280.50 0.283
280.00 0.277
279.50 0.272
279.00 0.266
278.50 0.262
278.00 0.257
277.50 0.253
277.00 0.250
276.50 0.247
276.00 0.244
275.50 0.242
275.00 0.240
274.50 0.239
274.00 0.238
273.50 0.237
273.00 0.237
272.50 0.237
272.00 0.238
271.50 0.240
271.00 0.242
270.50 0.246
270.00 0.249
269.50 0.254
269.00 0.259
268.50 0.265
268.00 0.271
267.50 0.277
267.00 0.284
266.50 0.291
266.00 0.299
265.50 0.307
265.00 0.315
264.50 0.324
264.00 0.333
263.50 0.343
263.00 0.353
262.50 0.364
262.00 0.376
261.50 0.388
261.00 0.400
260.50 0.413
260.00 0.425
259.50 0.438
259.00 0.452
258.50 0.465
258.00 0.479
257.50 0.492
257.00 0.506
256.50 0.520
256.00 0.533
255.50 0.547
255.00 0.561
254.50 0.575
254.00 0.590
253.50 0.605
253.00 0.619
252.50 0.634
252.00 0.649
251.50 0.665
251.00 0.680
250.50 0.692
250.00 0.700
##END=
