##TITLE= WL Accuracy at 546.1nm
##JCAMP-DX= 4.24
##DATA TYPE= UV/VIS SPECTRUM
##ORIGIN= 
##OWNER= Benson
##DATE= 13:04:10, 05/23/2025
##SAMPLE DESCRIPTION= 
##SPECTROMETER/DATA SYSTEM= Hitachi Model U-3900H Spectrophotometer;
Serial Number: 2089-010;
ROM Version: 2J25300 07;
##INSTRUMENT PARAMETERS= Scan Speed= 300 nm/min;
Delay= 0 s;
Cycle Time= 0 min;
Replicates= 1;
Auto Zero before each run= On;
Wavelength of Auto Zero before each run= 400.00 nm;
Slit Width= 2 nm;
PMT Voltage= Auto;
Lamp Change Mode= Auto;
Lamp Change Wavelength= 340.00 nm;
Baseline Correction= User 1(User One);
High Resolution= Off;
D2 Lamp= On;
WI Lamp= On;
R/S Reverse= Off;
##DELTAX= -0.50
##PATH_LENGTH= 10.0mm
##XLABEL= nm
##YLABEL= Abs
##XUNITS= NANOMETERS
##YUNITS= ABSORBANCE
##XFACTOR= 1.0
##YFACTOR= 1.0
##FIRSTX= 400.00
##LASTX= 250.00
##NPOINTS= 301
##XYDATA= (X++(Y..Y))
400.00 0.000
399.50 0.000
399.00 0.000
398.50 0.000
398.00 0.000
397.50 0.000
397.00 0.001
396.50 0.001
396.00 0.001
395.50 0.001
395.00 0.001
394.50 0.001
394.00 0.001
393.50 0.001
393.00 0.001
392.50 0.001
392.00 0.001
391.50 0.002
391.00 0.002
390.50 0.002
390.00 0.002
389.50 0.002
389.00 0.002
388.50 0.002
388.00 0.002
387.50 0.003
387.00 0.003
386.50 0.003
386.00 0.003
385.50 0.003
385.00 0.003
384.50 0.003
384.00 0.003
383.50 0.003
383.00 0.005
382.50 0.004
382.00 0.003
381.50 0.002
381.00 0.004
380.50 0.007
380.00 0.011
379.50 0.016
379.00 0.021
378.50 0.024
378.00 0.026
377.50 0.027
377.00 0.026
376.50 0.026
376.00 0.028
375.50 0.029
375.00 0.029
374.50 0.030
374.00 0.031
373.50 0.031
373.00 0.032
372.50 0.033
372.00 0.034
371.50 0.035
371.00 0.036
370.50 0.038
370.00 0.039
369.50 0.040
369.00 0.041
368.50 0.042
368.00 0.043
367.50 0.043
367.00 0.044
366.50 0.045
366.00 0.046
365.50 0.046
365.00 0.047
364.50 0.048
364.00 0.048
363.50 0.050
363.00 0.051
362.50 0.053
362.00 0.055
361.50 0.057
361.00 0.059
360.50 0.060
360.00 0.061
359.50 0.062
359.00 0.063
358.50 0.064
358.00 0.065
357.50 0.067
357.00 0.068
356.50 0.069
356.00 0.070
355.50 0.072
355.00 0.073
354.50 0.075
354.00 0.077
353.50 0.079
353.00 0.081
352.50 0.083
352.00 0.085
351.50 0.088
351.00 0.090
350.50 0.092
350.00 0.093
349.50 0.095
349.00 0.095
348.50 0.096
348.00 0.097
347.50 0.098
347.00 0.099
346.50 0.100
346.00 0.101
345.50 0.102
345.00 0.104
344.50 0.105
344.00 0.106
343.50 0.108
343.00 0.104
342.50 0.112
342.00 0.121
341.50 0.122
341.00 0.113
340.50 0.095
340.00 0.071
339.50 0.046
339.00 0.024
338.50 0.009
338.00 0.001
337.50 0.001
337.00 0.007
336.50 0.013
336.00 0.009
335.50 0.009
335.00 0.010
334.50 0.010
334.00 0.010
333.50 0.010
333.00 0.011
332.50 0.011
332.00 0.012
331.50 0.012
331.00 0.013
330.50 0.013
330.00 0.014
329.50 0.014
329.00 0.015
328.50 0.015
328.00 0.016
327.50 0.017
327.00 0.017
326.50 0.017
326.00 0.018
325.50 0.018
325.00 0.019
324.50 0.019
324.00 0.020
323.50 0.021
323.00 0.021
322.50 0.022
322.00 0.023
321.50 0.023
321.00 0.024
320.50 0.025
320.00 0.025
319.50 0.026
319.00 0.027
318.50 0.027
318.00 0.028
317.50 0.028
317.00 0.029
316.50 0.029
316.00 0.030
315.50 0.030
315.00 0.031
314.50 0.032
314.00 0.032
313.50 0.033
313.00 0.034
312.50 0.036
312.00 0.037
311.50 0.039
311.00 0.041
310.50 0.043
310.00 0.046
309.50 0.049
309.00 0.053
308.50 0.058
308.00 0.063
307.50 0.067
307.00 0.073
306.50 0.080
306.00 0.087
305.50 0.095
305.00 0.104
304.50 0.114
304.00 0.126
303.50 0.138
303.00 0.151
302.50 0.165
302.00 0.180
301.50 0.195
301.00 0.211
300.50 0.227
300.00 0.242
299.50 0.256
299.00 0.271
298.50 0.285
298.00 0.297
297.50 0.309
297.00 0.320
296.50 0.330
296.00 0.340
295.50 0.349
295.00 0.359
294.50 0.367
294.00 0.375
293.50 0.382
293.00 0.388
292.50 0.394
292.00 0.398
291.50 0.402
291.00 0.404
290.50 0.406
290.00 0.406
289.50 0.405
289.00 0.404
288.50 0.403
288.00 0.400
287.50 0.398
287.00 0.395
286.50 0.392
286.00 0.388
285.50 0.384
285.00 0.379
284.50 0.374
284.00 0.368
283.50 0.361
283.00 0.354
282.50 0.347
282.00 0.339
281.50 0.330
281.00 0.321
280.50 0.311
280.00 0.302
279.50 0.293
279.00 0.284
278.50 0.275
278.00 0.267
277.50 0.259
277.00 0.252
276.50 0.244
276.00 0.238
275.50 0.231
275.00 0.224
274.50 0.218
274.00 0.211
273.50 0.205
273.00 0.199
272.50 0.193
272.00 0.187
271.50 0.182
271.00 0.177
270.50 0.173
270.00 0.170
269.50 0.167
269.00 0.165
268.50 0.163
268.00 0.162
267.50 0.161
267.00 0.161
266.50 0.162
266.00 0.162
265.50 0.164
265.00 0.166
264.50 0.168
264.00 0.171
263.50 0.175
263.00 0.179
262.50 0.184
262.00 0.190
261.50 0.197
261.00 0.205
260.50 0.214
260.00 0.223
259.50 0.233
259.00 0.244
258.50 0.256
258.00 0.269
257.50 0.282
257.00 0.295
256.50 0.309
256.00 0.323
255.50 0.339
255.00 0.354
254.50 0.370
254.00 0.386
253.50 0.403
253.00 0.420
252.50 0.436
252.00 0.453
251.50 0.471
251.00 0.487
250.50 0.500
250.00 0.509
##END=
