##TITLE= WL Accuracy at 546.1nm
##JCAMP-DX= 4.24
##DATA TYPE= UV/VIS SPECTRUM
##ORIGIN= 
##OWNER= Benson
##DATE= 13:50:39, 05/23/2025
##SAMPLE DESCRIPTION= 
##SPECTROMETER/DATA SYSTEM= Hitachi Model U-3900H Spectrophotometer;
Serial Number: 2089-010;
ROM Version: 2J25300 07;
##INSTRUMENT PARAMETERS= Scan Speed= 300 nm/min;
Delay= 0 s;
Cycle Time= 0 min;
Replicates= 1;
Auto Zero before each run= On;
Wavelength of Auto Zero before each run= 400.00 nm;
Slit Width= 2 nm;
PMT Voltage= Auto;
Lamp Change Mode= Auto;
Lamp Change Wavelength= 340.00 nm;
Baseline Correction= User 1(User One);
High Resolution= Off;
D2 Lamp= On;
WI Lamp= On;
R/S Reverse= Off;
##DELTAX= -0.50
##PATH_LENGTH= 10.0mm
##XLABEL= nm
##YLABEL= Abs
##XUNITS= NANOMETERS
##YUNITS= ABSORBANCE
##XFACTOR= 1.0
##YFACTOR= 1.0
##FIRSTX= 400.00
##LASTX= 250.00
##NPOINTS= 301
##XYDATA= (X++(Y..Y))
400.00 0.000
399.50 0.000
399.00 0.000
398.50 0.000
398.00 0.000
397.50 0.000
397.00 0.001
396.50 0.001
396.00 0.001
395.50 0.001
395.00 0.001
394.50 0.001
394.00 0.001
393.50 0.001
393.00 0.001
392.50 0.001
392.00 0.002
391.50 0.002
391.00 0.002
390.50 0.002
390.00 0.003
389.50 0.003
389.00 0.003
388.50 0.003
388.00 0.003
387.50 0.003
387.00 0.004
386.50 0.004
386.00 0.004
385.50 0.004
385.00 0.004
384.50 0.004
384.00 0.004
383.50 0.005
383.00 0.006
382.50 0.005
382.00 0.004
381.50 0.004
381.00 0.005
380.50 0.008
380.00 0.013
379.50 0.018
379.00 0.022
378.50 0.026
378.00 0.028
377.50 0.029
377.00 0.028
376.50 0.028
376.00 0.029
375.50 0.030
375.00 0.031
374.50 0.032
374.00 0.033
373.50 0.034
373.00 0.035
372.50 0.035
372.00 0.036
371.50 0.038
371.00 0.039
370.50 0.040
370.00 0.041
369.50 0.042
369.00 0.044
368.50 0.045
368.00 0.046
367.50 0.047
367.00 0.047
366.50 0.048
366.00 0.048
365.50 0.049
365.00 0.050
364.50 0.051
364.00 0.052
363.50 0.053
363.00 0.055
362.50 0.057
362.00 0.058
361.50 0.060
361.00 0.062
360.50 0.063
360.00 0.064
359.50 0.066
359.00 0.067
358.50 0.068
358.00 0.069
357.50 0.070
357.00 0.071
356.50 0.073
356.00 0.075
355.50 0.076
355.00 0.078
354.50 0.080
354.00 0.081
353.50 0.083
353.00 0.085
352.50 0.088
352.00 0.091
351.50 0.094
351.00 0.096
350.50 0.098
350.00 0.099
349.50 0.100
349.00 0.101
348.50 0.102
348.00 0.103
347.50 0.105
347.00 0.106
346.50 0.107
346.00 0.109
345.50 0.110
345.00 0.112
344.50 0.113
344.00 0.116
343.50 0.118
343.00 0.115
342.50 0.124
342.00 0.133
341.50 0.135
341.00 0.126
340.50 0.109
340.00 0.087
339.50 0.064
339.00 0.044
338.50 0.030
338.00 0.024
337.50 0.027
337.00 0.035
336.50 0.044
336.00 0.042
335.50 0.045
335.00 0.048
334.50 0.051
334.00 0.055
333.50 0.059
333.00 0.064
332.50 0.070
332.00 0.076
331.50 0.082
331.00 0.089
330.50 0.096
330.00 0.105
329.50 0.113
329.00 0.122
328.50 0.132
328.00 0.142
327.50 0.151
327.00 0.161
326.50 0.170
326.00 0.181
325.50 0.191
325.00 0.203
324.50 0.214
324.00 0.227
323.50 0.239
323.00 0.252
322.50 0.265
322.00 0.277
321.50 0.290
321.00 0.303
320.50 0.315
320.00 0.326
319.50 0.337
319.00 0.348
318.50 0.357
318.00 0.365
317.50 0.373
317.00 0.380
316.50 0.386
316.00 0.391
315.50 0.396
315.00 0.401
314.50 0.404
314.00 0.408
313.50 0.410
313.00 0.413
312.50 0.415
312.00 0.417
311.50 0.417
311.00 0.418
310.50 0.419
310.00 0.419
309.50 0.419
309.00 0.419
308.50 0.419
308.00 0.417
307.50 0.416
307.00 0.415
306.50 0.413
306.00 0.412
305.50 0.410
305.00 0.409
304.50 0.408
304.00 0.407
303.50 0.406
303.00 0.405
302.50 0.404
302.00 0.403
301.50 0.402
301.00 0.401
300.50 0.400
300.00 0.399
299.50 0.397
299.00 0.396
298.50 0.394
298.00 0.393
297.50 0.391
297.00 0.388
296.50 0.386
296.00 0.384
295.50 0.382
295.00 0.379
294.50 0.376
294.00 0.373
293.50 0.370
293.00 0.366
292.50 0.362
292.00 0.358
291.50 0.354
291.00 0.350
290.50 0.345
290.00 0.340
289.50 0.335
289.00 0.330
288.50 0.325
288.00 0.320
287.50 0.315
287.00 0.311
286.50 0.307
286.00 0.303
285.50 0.299
285.00 0.295
284.50 0.292
284.00 0.288
283.50 0.284
283.00 0.280
282.50 0.276
282.00 0.272
281.50 0.268
281.00 0.264
280.50 0.261
280.00 0.258
279.50 0.256
279.00 0.254
278.50 0.253
278.00 0.252
277.50 0.253
277.00 0.253
276.50 0.255
276.00 0.256
275.50 0.259
275.00 0.262
274.50 0.265
274.00 0.270
273.50 0.275
273.00 0.281
272.50 0.288
272.00 0.296
271.50 0.304
271.00 0.314
270.50 0.325
270.00 0.336
269.50 0.348
269.00 0.361
268.50 0.374
268.00 0.387
267.50 0.401
267.00 0.414
266.50 0.429
266.00 0.443
265.50 0.458
265.00 0.472
264.50 0.488
264.00 0.503
263.50 0.520
263.00 0.536
262.50 0.553
262.00 0.569
261.50 0.587
261.00 0.603
260.50 0.620
260.00 0.636
259.50 0.652
259.00 0.668
258.50 0.683
258.00 0.697
257.50 0.712
257.00 0.725
256.50 0.739
256.00 0.751
255.50 0.765
255.00 0.777
254.50 0.790
254.00 0.802
253.50 0.815
253.00 0.827
252.50 0.840
252.00 0.853
251.50 0.868
251.00 0.880
250.50 0.891
250.00 0.899
##END=
