##TITLE= WL Accuracy at 546.1nm
##JCAMP-DX= 4.24
##DATA TYPE= UV/VIS SPECTRUM
##ORIGIN= 
##OWNER= Benson
##DATE= 12:42:56, 05/23/2025
##SAMPLE DESCRIPTION= 
##SPECTROMETER/DATA SYSTEM= Hitachi Model U-3900H Spectrophotometer;
Serial Number: 2089-010;
ROM Version: 2J25300 07;
##INSTRUMENT PARAMETERS= Scan Speed= 300 nm/min;
Delay= 0 s;
Cycle Time= 0 min;
Replicates= 1;
Auto Zero before each run= On;
Wavelength of Auto Zero before each run= 400.00 nm;
Slit Width= 2 nm;
PMT Voltage= Auto;
Lamp Change Mode= Auto;
Lamp Change Wavelength= 340.00 nm;
Baseline Correction= User 1(User One);
High Resolution= Off;
D2 Lamp= On;
WI Lamp= On;
R/S Reverse= Off;
##DELTAX= -0.50
##PATH_LENGTH= 10.0mm
##XLABEL= nm
##YLABEL= Abs
##XUNITS= NANOMETERS
##YUNITS= ABSORBANCE
##XFACTOR= 1.0
##YFACTOR= 1.0
##FIRSTX= 400.00
##LASTX= 250.00
##NPOINTS= 301
##XYDATA= (X++(Y..Y))
400.00 0.000
399.50 0.000
399.00 0.000
398.50 0.000
398.00 0.000
397.50 0.000
397.00 0.001
396.50 0.001
396.00 0.001
395.50 0.001
395.00 0.001
394.50 0.001
394.00 0.000
393.50 0.001
393.00 0.001
392.50 0.001
392.00 0.001
391.50 0.001
391.00 0.001
390.50 0.001
390.00 0.001
389.50 0.001
389.00 0.001
388.50 0.001
388.00 0.001
387.50 0.002
387.00 0.002
386.50 0.002
386.00 0.002
385.50 0.002
385.00 0.002
384.50 0.002
384.00 0.002
383.50 0.002
383.00 0.004
382.50 0.003
382.00 0.001
381.50 0.001
381.00 0.003
380.50 0.006
380.00 0.010
379.50 0.015
379.00 0.019
378.50 0.023
378.00 0.025
377.50 0.026
377.00 0.025
376.50 0.024
376.00 0.026
375.50 0.027
375.00 0.028
374.50 0.029
374.00 0.029
373.50 0.030
373.00 0.031
372.50 0.031
372.00 0.032
371.50 0.033
371.00 0.034
370.50 0.035
370.00 0.036
369.50 0.038
369.00 0.039
368.50 0.040
368.00 0.041
367.50 0.042
367.00 0.042
366.50 0.043
366.00 0.043
365.50 0.044
365.00 0.044
364.50 0.045
364.00 0.046
363.50 0.047
363.00 0.049
362.50 0.050
362.00 0.052
361.50 0.054
361.00 0.056
360.50 0.057
360.00 0.058
359.50 0.059
359.00 0.060
358.50 0.061
358.00 0.061
357.50 0.063
357.00 0.064
356.50 0.065
356.00 0.067
355.50 0.068
355.00 0.070
354.50 0.071
354.00 0.073
353.50 0.075
353.00 0.077
352.50 0.079
352.00 0.082
351.50 0.084
351.00 0.086
350.50 0.087
350.00 0.089
349.50 0.090
349.00 0.091
348.50 0.092
348.00 0.093
347.50 0.094
347.00 0.094
346.50 0.095
346.00 0.096
345.50 0.097
345.00 0.098
344.50 0.100
344.00 0.101
343.50 0.103
343.00 0.099
342.50 0.107
342.00 0.115
341.50 0.116
341.00 0.107
340.50 0.088
340.00 0.064
339.50 0.040
339.00 0.018
338.50 0.002
338.00 -0.006
337.50 -0.005
337.00 0.001
336.50 0.007
336.00 0.002
335.50 0.003
335.00 0.003
334.50 0.003
334.00 0.003
333.50 0.003
333.00 0.003
332.50 0.003
332.00 0.003
331.50 0.003
331.00 0.003
330.50 0.003
330.00 0.003
329.50 0.003
329.00 0.004
328.50 0.004
328.00 0.004
327.50 0.004
327.00 0.004
326.50 0.004
326.00 0.004
325.50 0.004
325.00 0.004
324.50 0.004
324.00 0.005
323.50 0.005
323.00 0.005
322.50 0.005
322.00 0.006
321.50 0.006
321.00 0.006
320.50 0.006
320.00 0.006
319.50 0.006
319.00 0.006
318.50 0.006
318.00 0.007
317.50 0.007
317.00 0.007
316.50 0.007
316.00 0.007
315.50 0.007
315.00 0.008
314.50 0.008
314.00 0.009
313.50 0.010
313.00 0.011
312.50 0.011
312.00 0.013
311.50 0.014
311.00 0.015
310.50 0.017
310.00 0.020
309.50 0.022
309.00 0.026
308.50 0.029
308.00 0.033
307.50 0.037
307.00 0.042
306.50 0.047
306.00 0.053
305.50 0.060
305.00 0.068
304.50 0.076
304.00 0.086
303.50 0.095
303.00 0.106
302.50 0.118
302.00 0.130
301.50 0.143
301.00 0.156
300.50 0.168
300.00 0.181
299.50 0.193
299.00 0.206
298.50 0.217
298.00 0.228
297.50 0.237
297.00 0.247
296.50 0.255
296.00 0.263
295.50 0.270
295.00 0.278
294.50 0.285
294.00 0.291
293.50 0.297
293.00 0.303
292.50 0.307
292.00 0.311
291.50 0.314
291.00 0.316
290.50 0.317
290.00 0.317
289.50 0.317
289.00 0.316
288.50 0.314
288.00 0.312
287.50 0.310
287.00 0.308
286.50 0.305
286.00 0.302
285.50 0.298
285.00 0.294
284.50 0.290
284.00 0.285
283.50 0.280
283.00 0.274
282.50 0.267
282.00 0.261
281.50 0.253
281.00 0.246
280.50 0.238
280.00 0.230
279.50 0.223
279.00 0.215
278.50 0.208
278.00 0.201
277.50 0.195
277.00 0.188
276.50 0.182
276.00 0.176
275.50 0.170
275.00 0.165
274.50 0.159
274.00 0.153
273.50 0.148
273.00 0.143
272.50 0.138
272.00 0.133
271.50 0.128
271.00 0.124
270.50 0.120
270.00 0.117
269.50 0.114
269.00 0.112
268.50 0.110
268.00 0.108
267.50 0.107
267.00 0.106
266.50 0.106
266.00 0.106
265.50 0.107
265.00 0.107
264.50 0.109
264.00 0.110
263.50 0.113
263.00 0.115
262.50 0.119
262.00 0.123
261.50 0.128
261.00 0.133
260.50 0.140
260.00 0.146
259.50 0.154
259.00 0.162
258.50 0.171
258.00 0.180
257.50 0.190
257.00 0.200
256.50 0.210
256.00 0.221
255.50 0.232
255.00 0.244
254.50 0.256
254.00 0.269
253.50 0.282
253.00 0.294
252.50 0.306
252.00 0.319
251.50 0.332
251.00 0.344
250.50 0.353
250.00 0.360
##END=
