##TITLE= WL Accuracy at 546.1nm
##JCAMP-DX= 4.24
##DATA TYPE= UV/VIS SPECTRUM
##ORIGIN= 
##OWNER= Benson
##DATE= 13:31:42, 05/23/2025
##SAMPLE DESCRIPTION= 
##SPECTROMETER/DATA SYSTEM= Hitachi Model U-3900H Spectrophotometer;
Serial Number: 2089-010;
ROM Version: 2J25300 07;
##INSTRUMENT PARAMETERS= Scan Speed= 300 nm/min;
Delay= 0 s;
Cycle Time= 0 min;
Replicates= 1;
Auto Zero before each run= On;
Wavelength of Auto Zero before each run= 400.00 nm;
Slit Width= 2 nm;
PMT Voltage= Auto;
Lamp Change Mode= Auto;
Lamp Change Wavelength= 340.00 nm;
Baseline Correction= User 1(User One);
High Resolution= Off;
D2 Lamp= On;
WI Lamp= On;
R/S Reverse= Off;
##DELTAX= -0.50
##PATH_LENGTH= 10.0mm
##XLABEL= nm
##YLABEL= Abs
##XUNITS= NANOMETERS
##YUNITS= ABSORBANCE
##XFACTOR= 1.0
##YFACTOR= 1.0
##FIRSTX= 400.00
##LASTX= 250.00
##NPOINTS= 301
##XYDATA= (X++(Y..Y))
400.00 0.000
399.50 0.000
399.00 0.000
398.50 0.001
398.00 0.001
397.50 0.001
397.00 0.001
396.50 0.001
396.00 0.001
395.50 0.001
395.00 0.001
394.50 0.001
394.00 0.001
393.50 0.001
393.00 0.001
392.50 0.002
392.00 0.002
391.50 0.002
391.00 0.002
390.50 0.002
390.00 0.002
389.50 0.003
389.00 0.003
388.50 0.003
388.00 0.003
387.50 0.003
387.00 0.003
386.50 0.003
386.00 0.004
385.50 0.004
385.00 0.004
384.50 0.004
384.00 0.004
383.50 0.004
383.00 0.006
382.50 0.005
382.00 0.004
381.50 0.004
381.00 0.005
380.50 0.008
380.00 0.012
379.50 0.017
379.00 0.021
378.50 0.025
378.00 0.027
377.50 0.028
377.00 0.027
376.50 0.027
376.00 0.029
375.50 0.030
375.00 0.030
374.50 0.031
374.00 0.032
373.50 0.033
373.00 0.034
372.50 0.034
372.00 0.035
371.50 0.037
371.00 0.038
370.50 0.039
370.00 0.040
369.50 0.041
369.00 0.042
368.50 0.043
368.00 0.044
367.50 0.045
367.00 0.046
366.50 0.046
366.00 0.047
365.50 0.048
365.00 0.048
364.50 0.049
364.00 0.050
363.50 0.052
363.00 0.053
362.50 0.055
362.00 0.057
361.50 0.059
361.00 0.060
360.50 0.062
360.00 0.063
359.50 0.064
359.00 0.065
358.50 0.066
358.00 0.067
357.50 0.068
357.00 0.070
356.50 0.071
356.00 0.073
355.50 0.074
355.00 0.076
354.50 0.077
354.00 0.079
353.50 0.081
353.00 0.083
352.50 0.086
352.00 0.089
351.50 0.091
351.00 0.093
350.50 0.095
350.00 0.096
349.50 0.098
349.00 0.099
348.50 0.100
348.00 0.101
347.50 0.102
347.00 0.103
346.50 0.104
346.00 0.105
345.50 0.106
345.00 0.108
344.50 0.110
344.00 0.112
343.50 0.114
343.00 0.110
342.50 0.119
342.00 0.128
341.50 0.130
341.00 0.121
340.50 0.104
340.00 0.080
339.50 0.056
339.00 0.035
338.50 0.020
338.00 0.013
337.50 0.015
337.00 0.023
336.50 0.030
336.00 0.028
335.50 0.030
335.00 0.032
334.50 0.035
334.00 0.037
333.50 0.040
333.00 0.043
332.50 0.047
332.00 0.051
331.50 0.055
331.00 0.060
330.50 0.065
330.00 0.070
329.50 0.076
329.00 0.082
328.50 0.089
328.00 0.095
327.50 0.101
327.00 0.108
326.50 0.114
326.00 0.121
325.50 0.129
325.00 0.136
324.50 0.144
324.00 0.152
323.50 0.160
323.00 0.169
322.50 0.177
322.00 0.186
321.50 0.194
321.00 0.203
320.50 0.212
320.00 0.220
319.50 0.227
319.00 0.234
318.50 0.240
318.00 0.246
317.50 0.251
317.00 0.256
316.50 0.260
316.00 0.264
315.50 0.267
315.00 0.270
314.50 0.273
314.00 0.275
313.50 0.277
313.00 0.279
312.50 0.281
312.00 0.283
311.50 0.284
311.00 0.285
310.50 0.286
310.00 0.287
309.50 0.288
309.00 0.289
308.50 0.290
308.00 0.291
307.50 0.292
307.00 0.293
306.50 0.295
306.00 0.296
305.50 0.298
305.00 0.300
304.50 0.303
304.00 0.306
303.50 0.310
303.00 0.313
302.50 0.317
302.00 0.322
301.50 0.327
301.00 0.331
300.50 0.336
300.00 0.341
299.50 0.345
299.00 0.349
298.50 0.353
298.00 0.356
297.50 0.359
297.00 0.361
296.50 0.363
296.00 0.365
295.50 0.367
295.00 0.368
294.50 0.369
294.00 0.370
293.50 0.370
293.00 0.370
292.50 0.369
292.00 0.368
291.50 0.366
291.00 0.364
290.50 0.361
290.00 0.358
289.50 0.355
289.00 0.351
288.50 0.347
288.00 0.344
287.50 0.340
287.00 0.337
286.50 0.333
286.00 0.329
285.50 0.325
285.00 0.320
284.50 0.316
284.00 0.311
283.50 0.306
283.00 0.301
282.50 0.296
282.00 0.291
281.50 0.285
281.00 0.280
280.50 0.274
280.00 0.269
279.50 0.265
279.00 0.260
278.50 0.256
278.00 0.253
277.50 0.251
277.00 0.248
276.50 0.247
276.00 0.246
275.50 0.244
275.00 0.244
274.50 0.244
274.00 0.245
273.50 0.246
273.00 0.248
272.50 0.251
272.00 0.254
271.50 0.257
271.00 0.262
270.50 0.268
270.00 0.274
269.50 0.281
269.00 0.288
268.50 0.297
268.00 0.305
267.50 0.313
267.00 0.322
266.50 0.332
266.00 0.341
265.50 0.351
265.00 0.362
264.50 0.373
264.00 0.384
263.50 0.396
263.00 0.408
262.50 0.420
262.00 0.433
261.50 0.447
261.00 0.460
260.50 0.474
260.00 0.488
259.50 0.502
259.00 0.516
258.50 0.530
258.00 0.544
257.50 0.557
257.00 0.571
256.50 0.584
256.00 0.597
255.50 0.611
255.00 0.624
254.50 0.639
254.00 0.653
253.50 0.667
253.00 0.681
252.50 0.694
252.00 0.709
251.50 0.724
251.00 0.738
250.50 0.749
250.00 0.758
##END=
