##TITLE= WL Accuracy at 546.1nm
##JCAMP-DX= 4.24
##DATA TYPE= UV/VIS SPECTRUM
##ORIGIN= 
##OWNER= Benson
##DATE= 13:43:50, 05/23/2025
##SAMPLE DESCRIPTION= 
##SPECTROMETER/DATA SYSTEM= Hitachi Model U-3900H Spectrophotometer;
Serial Number: 2089-010;
ROM Version: 2J25300 07;
##INSTRUMENT PARAMETERS= Scan Speed= 300 nm/min;
Delay= 0 s;
Cycle Time= 0 min;
Replicates= 1;
Auto Zero before each run= On;
Wavelength of Auto Zero before each run= 400.00 nm;
Slit Width= 2 nm;
PMT Voltage= Auto;
Lamp Change Mode= Auto;
Lamp Change Wavelength= 340.00 nm;
Baseline Correction= User 1(User One);
High Resolution= Off;
D2 Lamp= On;
WI Lamp= On;
R/S Reverse= Off;
##DELTAX= -0.50
##PATH_LENGTH= 10.0mm
##XLABEL= nm
##YLABEL= Abs
##XUNITS= NANOMETERS
##YUNITS= ABSORBANCE
##XFACTOR= 1.0
##YFACTOR= 1.0
##FIRSTX= 400.00
##LASTX= 250.00
##NPOINTS= 301
##XYDATA= (X++(Y..Y))
400.00 0.000
399.50 0.000
399.00 0.000
398.50 0.000
398.00 0.000
397.50 0.000
397.00 0.000
396.50 0.001
396.00 0.001
395.50 0.001
395.00 0.001
394.50 0.001
394.00 0.001
393.50 0.001
393.00 0.001
392.50 0.001
392.00 0.001
391.50 0.002
391.00 0.002
390.50 0.002
390.00 0.002
389.50 0.002
389.00 0.002
388.50 0.002
388.00 0.002
387.50 0.003
387.00 0.003
386.50 0.003
386.00 0.003
385.50 0.003
385.00 0.003
384.50 0.003
384.00 0.004
383.50 0.004
383.00 0.005
382.50 0.004
382.00 0.003
381.50 0.003
381.00 0.004
380.50 0.007
380.00 0.012
379.50 0.017
379.00 0.022
378.50 0.025
378.00 0.027
377.50 0.027
377.00 0.026
376.50 0.026
376.00 0.028
375.50 0.030
375.00 0.030
374.50 0.031
374.00 0.032
373.50 0.032
373.00 0.033
372.50 0.034
372.00 0.035
371.50 0.036
371.00 0.037
370.50 0.038
370.00 0.040
369.50 0.041
369.00 0.042
368.50 0.043
368.00 0.044
367.50 0.045
367.00 0.045
366.50 0.046
366.00 0.046
365.50 0.047
365.00 0.048
364.50 0.049
364.00 0.050
363.50 0.051
363.00 0.053
362.50 0.054
362.00 0.056
361.50 0.058
361.00 0.060
360.50 0.062
360.00 0.063
359.50 0.063
359.00 0.064
358.50 0.065
358.00 0.066
357.50 0.068
357.00 0.069
356.50 0.071
356.00 0.072
355.50 0.074
355.00 0.075
354.50 0.077
354.00 0.078
353.50 0.080
353.00 0.083
352.50 0.085
352.00 0.088
351.50 0.090
351.00 0.093
350.50 0.095
350.00 0.096
349.50 0.097
349.00 0.098
348.50 0.100
348.00 0.101
347.50 0.102
347.00 0.103
346.50 0.104
346.00 0.105
345.50 0.106
345.00 0.108
344.50 0.110
344.00 0.112
343.50 0.114
343.00 0.110
342.50 0.119
342.00 0.128
341.50 0.130
341.00 0.122
340.50 0.104
340.00 0.081
339.50 0.057
339.00 0.036
338.50 0.021
338.00 0.015
337.50 0.017
337.00 0.025
336.50 0.033
336.00 0.031
335.50 0.033
335.00 0.036
334.50 0.038
334.00 0.041
333.50 0.045
333.00 0.048
332.50 0.053
332.00 0.057
331.50 0.063
331.00 0.068
330.50 0.074
330.00 0.080
329.50 0.087
329.00 0.094
328.50 0.101
328.00 0.109
327.50 0.117
327.00 0.124
326.50 0.132
326.00 0.140
325.50 0.148
325.00 0.157
324.50 0.166
324.00 0.176
323.50 0.186
323.00 0.195
322.50 0.205
322.00 0.215
321.50 0.225
321.00 0.235
320.50 0.245
320.00 0.254
319.50 0.263
319.00 0.271
318.50 0.278
318.00 0.285
317.50 0.291
317.00 0.296
316.50 0.301
316.00 0.305
315.50 0.309
315.00 0.312
314.50 0.316
314.00 0.318
313.50 0.321
313.00 0.323
312.50 0.325
312.00 0.327
311.50 0.328
311.00 0.329
310.50 0.330
310.00 0.330
309.50 0.331
309.00 0.332
308.50 0.332
308.00 0.332
307.50 0.332
307.00 0.333
306.50 0.333
306.00 0.334
305.50 0.334
305.00 0.336
304.50 0.337
304.00 0.338
303.50 0.340
303.00 0.342
302.50 0.345
302.00 0.347
301.50 0.350
301.00 0.353
300.50 0.355
300.00 0.358
299.50 0.360
299.00 0.362
298.50 0.364
298.00 0.366
297.50 0.367
297.00 0.368
296.50 0.368
296.00 0.369
295.50 0.369
295.00 0.369
294.50 0.369
294.00 0.368
293.50 0.367
293.00 0.366
292.50 0.364
292.00 0.362
291.50 0.359
291.00 0.356
290.50 0.353
290.00 0.349
289.50 0.345
289.00 0.341
288.50 0.337
288.00 0.333
287.50 0.329
287.00 0.325
286.50 0.321
286.00 0.317
285.50 0.313
285.00 0.309
284.50 0.305
284.00 0.301
283.50 0.296
283.00 0.291
282.50 0.287
282.00 0.282
281.50 0.277
281.00 0.272
280.50 0.267
280.00 0.263
279.50 0.259
279.00 0.256
278.50 0.253
278.00 0.251
277.50 0.249
277.00 0.248
276.50 0.247
276.00 0.247
275.50 0.247
275.00 0.248
274.50 0.249
274.00 0.251
273.50 0.253
273.00 0.256
272.50 0.260
272.00 0.265
271.50 0.271
271.00 0.277
270.50 0.284
270.00 0.292
269.50 0.301
269.00 0.310
268.50 0.320
268.00 0.330
267.50 0.340
267.00 0.351
266.50 0.362
266.00 0.373
265.50 0.385
265.00 0.397
264.50 0.409
264.00 0.422
263.50 0.435
263.00 0.449
262.50 0.463
262.00 0.477
261.50 0.492
261.00 0.507
260.50 0.521
260.00 0.536
259.50 0.550
259.00 0.565
258.50 0.580
258.00 0.594
257.50 0.607
257.00 0.621
256.50 0.634
256.00 0.648
255.50 0.661
255.00 0.675
254.50 0.688
254.00 0.702
253.50 0.715
253.00 0.729
252.50 0.742
252.00 0.756
251.50 0.771
251.00 0.785
250.50 0.796
250.00 0.805
##END=
