##TITLE= WL Accuracy at 546.1nm
##JCAMP-DX= 4.24
##DATA TYPE= UV/VIS SPECTRUM
##ORIGIN= 
##OWNER= Benson
##DATE= 12:54:52, 05/23/2025
##SAMPLE DESCRIPTION= 
##SPECTROMETER/DATA SYSTEM= Hitachi Model U-3900H Spectrophotometer;
Serial Number: 2089-010;
ROM Version: 2J25300 07;
##INSTRUMENT PARAMETERS= Scan Speed= 300 nm/min;
Delay= 0 s;
Cycle Time= 0 min;
Replicates= 1;
Auto Zero before each run= On;
Wavelength of Auto Zero before each run= 400.00 nm;
Slit Width= 2 nm;
PMT Voltage= Auto;
Lamp Change Mode= Auto;
Lamp Change Wavelength= 340.00 nm;
Baseline Correction= User 1(User One);
High Resolution= Off;
D2 Lamp= On;
WI Lamp= On;
R/S Reverse= Off;
##DELTAX= -0.50
##PATH_LENGTH= 10.0mm
##XLABEL= nm
##YLABEL= Abs
##XUNITS= NANOMETERS
##YUNITS= ABSORBANCE
##XFACTOR= 1.0
##YFACTOR= 1.0
##FIRSTX= 400.00
##LASTX= 250.00
##NPOINTS= 301
##XYDATA= (X++(Y..Y))
400.00 0.000
399.50 0.000
399.00 0.000
398.50 0.000
398.00 0.000
397.50 0.000
397.00 0.000
396.50 0.001
396.00 0.001
395.50 0.001
395.00 0.001
394.50 0.000
394.00 0.000
393.50 0.000
393.00 0.000
392.50 0.001
392.00 0.001
391.50 0.001
391.00 0.001
390.50 0.002
390.00 0.002
389.50 0.002
389.00 0.001
388.50 0.002
388.00 0.002
387.50 0.002
387.00 0.002
386.50 0.002
386.00 0.002
385.50 0.002
385.00 0.002
384.50 0.002
384.00 0.003
383.50 0.003
383.00 0.004
382.50 0.003
382.00 0.002
381.50 0.002
381.00 0.003
380.50 0.006
380.00 0.011
379.50 0.016
379.00 0.020
378.50 0.024
378.00 0.026
377.50 0.026
377.00 0.025
376.50 0.025
376.00 0.027
375.50 0.028
375.00 0.029
374.50 0.029
374.00 0.030
373.50 0.030
373.00 0.031
372.50 0.032
372.00 0.033
371.50 0.035
371.00 0.036
370.50 0.037
370.00 0.038
369.50 0.039
369.00 0.040
368.50 0.041
368.00 0.042
367.50 0.042
367.00 0.043
366.50 0.044
366.00 0.045
365.50 0.045
365.00 0.046
364.50 0.046
364.00 0.047
363.50 0.049
363.00 0.050
362.50 0.052
362.00 0.054
361.50 0.056
361.00 0.057
360.50 0.058
360.00 0.059
359.50 0.060
359.00 0.061
358.50 0.062
358.00 0.064
357.50 0.065
357.00 0.066
356.50 0.067
356.00 0.068
355.50 0.070
355.00 0.071
354.50 0.073
354.00 0.075
353.50 0.077
353.00 0.079
352.50 0.081
352.00 0.084
351.50 0.086
351.00 0.088
350.50 0.090
350.00 0.091
349.50 0.092
349.00 0.093
348.50 0.094
348.00 0.095
347.50 0.095
347.00 0.096
346.50 0.097
346.00 0.098
345.50 0.100
345.00 0.101
344.50 0.102
344.00 0.104
343.50 0.105
343.00 0.101
342.50 0.109
342.00 0.118
341.50 0.119
341.00 0.110
340.50 0.092
340.00 0.068
339.50 0.043
339.00 0.022
338.50 0.006
338.00 -0.001
337.50 -0.001
337.00 0.005
336.50 0.011
336.00 0.007
335.50 0.007
335.00 0.007
334.50 0.007
334.00 0.008
333.50 0.008
333.00 0.008
332.50 0.008
332.00 0.008
331.50 0.008
331.00 0.008
330.50 0.008
330.00 0.009
329.50 0.009
329.00 0.010
328.50 0.010
328.00 0.011
327.50 0.011
327.00 0.011
326.50 0.011
326.00 0.011
325.50 0.011
325.00 0.011
324.50 0.012
324.00 0.012
323.50 0.012
323.00 0.013
322.50 0.013
322.00 0.013
321.50 0.013
321.00 0.014
320.50 0.014
320.00 0.014
319.50 0.015
319.00 0.015
318.50 0.016
318.00 0.016
317.50 0.017
317.00 0.017
316.50 0.017
316.00 0.018
315.50 0.018
315.00 0.019
314.50 0.019
314.00 0.020
313.50 0.021
313.00 0.021
312.50 0.023
312.00 0.024
311.50 0.026
311.00 0.028
310.50 0.030
310.00 0.033
309.50 0.036
309.00 0.040
308.50 0.045
308.00 0.050
307.50 0.055
307.00 0.061
306.50 0.067
306.00 0.075
305.50 0.083
305.00 0.092
304.50 0.103
304.00 0.114
303.50 0.126
303.00 0.140
302.50 0.154
302.00 0.170
301.50 0.185
301.00 0.202
300.50 0.218
300.00 0.234
299.50 0.249
299.00 0.264
298.50 0.277
298.00 0.290
297.50 0.302
297.00 0.314
296.50 0.325
296.00 0.335
295.50 0.345
295.00 0.354
294.50 0.363
294.00 0.371
293.50 0.378
293.00 0.385
292.50 0.390
292.00 0.395
291.50 0.399
291.00 0.402
290.50 0.403
290.00 0.404
289.50 0.403
289.00 0.402
288.50 0.401
288.00 0.399
287.50 0.396
287.00 0.393
286.50 0.390
286.00 0.386
285.50 0.382
285.00 0.377
284.50 0.372
284.00 0.365
283.50 0.359
283.00 0.352
282.50 0.344
282.00 0.336
281.50 0.327
281.00 0.318
280.50 0.308
280.00 0.298
279.50 0.289
279.00 0.280
278.50 0.271
278.00 0.262
277.50 0.255
277.00 0.247
276.50 0.239
276.00 0.232
275.50 0.225
275.00 0.218
274.50 0.211
274.00 0.204
273.50 0.197
273.00 0.191
272.50 0.184
272.00 0.178
271.50 0.173
271.00 0.168
270.50 0.163
270.00 0.159
269.50 0.156
269.00 0.153
268.50 0.151
268.00 0.149
267.50 0.148
267.00 0.147
266.50 0.148
266.00 0.148
265.50 0.148
265.00 0.150
264.50 0.152
264.00 0.154
263.50 0.157
263.00 0.161
262.50 0.166
262.00 0.171
261.50 0.178
261.00 0.185
260.50 0.193
260.00 0.202
259.50 0.211
259.00 0.222
258.50 0.234
258.00 0.246
257.50 0.258
257.00 0.271
256.50 0.285
256.00 0.299
255.50 0.314
255.00 0.329
254.50 0.345
254.00 0.361
253.50 0.378
253.00 0.394
252.50 0.410
252.00 0.427
251.50 0.444
251.00 0.459
250.50 0.472
250.00 0.481
##END=
