##TITLE= WL Accuracy at 546.1nm
##JCAMP-DX= 4.24
##DATA TYPE= UV/VIS SPECTRUM
##ORIGIN= 
##OWNER= Benson
##DATE= 14:40:00, 05/23/2025
##SAMPLE DESCRIPTION= 
##SPECTROMETER/DATA SYSTEM= Hitachi Model U-3900H Spectrophotometer;
Serial Number: 2089-010;
ROM Version: 2J25300 07;
##INSTRUMENT PARAMETERS= Scan Speed= 300 nm/min;
Delay= 0 s;
Cycle Time= 0 min;
Replicates= 1;
Auto Zero before each run= On;
Wavelength of Auto Zero before each run= 400.00 nm;
Slit Width= 2 nm;
PMT Voltage= Auto;
Lamp Change Mode= Auto;
Lamp Change Wavelength= 340.00 nm;
Baseline Correction= User 1(User One);
High Resolution= Off;
D2 Lamp= On;
WI Lamp= On;
R/S Reverse= Off;
##DELTAX= -0.50
##PATH_LENGTH= 10.0mm
##XLABEL= nm
##YLABEL= Abs
##XUNITS= NANOMETERS
##YUNITS= ABSORBANCE
##XFACTOR= 1.0
##YFACTOR= 1.0
##FIRSTX= 400.00
##LASTX= 250.00
##NPOINTS= 301
##XYDATA= (X++(Y..Y))
400.00 0.000
399.50 0.000
399.00 0.000
398.50 0.000
398.00 0.000
397.50 0.000
397.00 0.001
396.50 0.001
396.00 0.001
395.50 0.001
395.00 0.001
394.50 0.001
394.00 0.001
393.50 0.001
393.00 0.001
392.50 0.002
392.00 0.002
391.50 0.002
391.00 0.002
390.50 0.002
390.00 0.002
389.50 0.003
389.00 0.003
388.50 0.003
388.00 0.004
387.50 0.004
387.00 0.004
386.50 0.004
386.00 0.004
385.50 0.004
385.00 0.004
384.50 0.005
384.00 0.005
383.50 0.005
383.00 0.006
382.50 0.005
382.00 0.004
381.50 0.004
381.00 0.006
380.50 0.009
380.00 0.013
379.50 0.017
379.00 0.022
378.50 0.025
378.00 0.027
377.50 0.028
377.00 0.028
376.50 0.028
376.00 0.030
375.50 0.031
375.00 0.031
374.50 0.032
374.00 0.033
373.50 0.034
373.00 0.035
372.50 0.036
372.00 0.037
371.50 0.038
371.00 0.039
370.50 0.040
370.00 0.042
369.50 0.043
369.00 0.044
368.50 0.045
368.00 0.046
367.50 0.047
367.00 0.047
366.50 0.048
366.00 0.049
365.50 0.050
365.00 0.050
364.50 0.051
364.00 0.052
363.50 0.053
363.00 0.055
362.50 0.057
362.00 0.059
361.50 0.061
361.00 0.063
360.50 0.064
360.00 0.065
359.50 0.066
359.00 0.067
358.50 0.068
358.00 0.069
357.50 0.070
357.00 0.072
356.50 0.074
356.00 0.075
355.50 0.077
355.00 0.078
354.50 0.080
354.00 0.081
353.50 0.083
353.00 0.086
352.50 0.088
352.00 0.091
351.50 0.094
351.00 0.096
350.50 0.098
350.00 0.100
349.50 0.101
349.00 0.102
348.50 0.104
348.00 0.106
347.50 0.107
347.00 0.108
346.50 0.109
346.00 0.111
345.50 0.113
345.00 0.115
344.50 0.117
344.00 0.120
343.50 0.123
343.00 0.120
342.50 0.129
342.00 0.138
341.50 0.141
341.00 0.134
340.50 0.118
340.00 0.098
339.50 0.076
339.00 0.057
338.50 0.045
338.00 0.041
337.50 0.045
337.00 0.055
336.50 0.066
336.00 0.066
335.50 0.072
335.00 0.078
334.50 0.084
334.00 0.091
333.50 0.098
333.00 0.106
332.50 0.115
332.00 0.125
331.50 0.137
331.00 0.149
330.50 0.162
330.00 0.177
329.50 0.191
329.00 0.206
328.50 0.221
328.00 0.237
327.50 0.254
327.00 0.271
326.50 0.288
326.00 0.306
325.50 0.325
325.00 0.343
324.50 0.363
324.00 0.383
323.50 0.404
323.00 0.425
322.50 0.447
322.00 0.468
321.50 0.489
321.00 0.510
320.50 0.531
320.00 0.550
319.50 0.568
319.00 0.584
318.50 0.600
318.00 0.614
317.50 0.627
317.00 0.638
316.50 0.648
316.00 0.657
315.50 0.664
315.00 0.671
314.50 0.677
314.00 0.682
313.50 0.686
313.00 0.689
312.50 0.692
312.00 0.694
311.50 0.694
311.00 0.694
310.50 0.693
310.00 0.692
309.50 0.689
309.00 0.685
308.50 0.682
308.00 0.677
307.50 0.671
307.00 0.665
306.50 0.658
306.00 0.651
305.50 0.642
305.00 0.634
304.50 0.625
304.00 0.615
303.50 0.604
303.00 0.593
302.50 0.582
302.00 0.570
301.50 0.557
301.00 0.545
300.50 0.532
300.00 0.519
299.50 0.506
299.00 0.493
298.50 0.481
298.00 0.469
297.50 0.458
297.00 0.447
296.50 0.435
296.00 0.425
295.50 0.414
295.00 0.403
294.50 0.392
294.00 0.382
293.50 0.371
293.00 0.361
292.50 0.351
292.00 0.340
291.50 0.331
291.00 0.321
290.50 0.312
290.00 0.303
289.50 0.295
289.00 0.287
288.50 0.280
288.00 0.274
287.50 0.268
287.00 0.263
286.50 0.258
286.00 0.254
285.50 0.250
285.00 0.246
284.50 0.243
284.00 0.240
283.50 0.238
283.00 0.237
282.50 0.235
282.00 0.235
281.50 0.235
281.00 0.236
280.50 0.237
280.00 0.239
279.50 0.242
279.00 0.245
278.50 0.250
278.00 0.255
277.50 0.261
277.00 0.268
276.50 0.275
276.00 0.284
275.50 0.292
275.00 0.302
274.50 0.313
274.00 0.326
273.50 0.339
273.00 0.354
272.50 0.370
272.00 0.387
271.50 0.405
271.00 0.426
270.50 0.447
270.00 0.469
269.50 0.492
269.00 0.516
268.50 0.539
268.00 0.563
267.50 0.587
267.00 0.612
266.50 0.636
266.00 0.661
265.50 0.685
265.00 0.710
264.50 0.735
264.00 0.761
263.50 0.786
263.00 0.813
262.50 0.840
262.00 0.865
261.50 0.891
261.00 0.917
260.50 0.941
260.00 0.964
259.50 0.986
259.00 1.008
258.50 1.028
258.00 1.046
257.50 1.063
257.00 1.081
256.50 1.097
256.00 1.112
255.50 1.126
255.00 1.140
254.50 1.154
254.00 1.169
253.50 1.183
253.00 1.197
252.50 1.212
252.00 1.228
251.50 1.246
251.00 1.264
250.50 1.280
250.00 1.292
##END=
