##TITLE= WL Accuracy at 546.1nm
##JCAMP-DX= 4.24
##DATA TYPE= UV/VIS SPECTRUM
##ORIGIN= 
##OWNER= Benson
##DATE= 13:01:05, 05/23/2025
##SAMPLE DESCRIPTION= 
##SPECTROMETER/DATA SYSTEM= Hitachi Model U-3900H Spectrophotometer;
Serial Number: 2089-010;
ROM Version: 2J25300 07;
##INSTRUMENT PARAMETERS= Scan Speed= 300 nm/min;
Delay= 0 s;
Cycle Time= 0 min;
Replicates= 1;
Auto Zero before each run= On;
Wavelength of Auto Zero before each run= 400.00 nm;
Slit Width= 2 nm;
PMT Voltage= Auto;
Lamp Change Mode= Auto;
Lamp Change Wavelength= 340.00 nm;
Baseline Correction= User 1(User One);
High Resolution= Off;
D2 Lamp= On;
WI Lamp= On;
R/S Reverse= Off;
##DELTAX= -0.50
##PATH_LENGTH= 10.0mm
##XLABEL= nm
##YLABEL= Abs
##XUNITS= NANOMETERS
##YUNITS= ABSORBANCE
##XFACTOR= 1.0
##YFACTOR= 1.0
##FIRSTX= 400.00
##LASTX= 250.00
##NPOINTS= 301
##XYDATA= (X++(Y..Y))
400.00 0.000
399.50 0.000
399.00 0.000
398.50 0.000
398.00 0.000
397.50 0.001
397.00 0.001
396.50 0.001
396.00 0.001
395.50 0.001
395.00 0.001
394.50 0.001
394.00 0.001
393.50 0.001
393.00 0.001
392.50 0.001
392.00 0.001
391.50 0.002
391.00 0.002
390.50 0.002
390.00 0.002
389.50 0.002
389.00 0.002
388.50 0.002
388.00 0.003
387.50 0.003
387.00 0.003
386.50 0.003
386.00 0.003
385.50 0.003
385.00 0.003
384.50 0.003
384.00 0.003
383.50 0.004
383.00 0.005
382.50 0.004
382.00 0.003
381.50 0.003
381.00 0.004
380.50 0.007
380.00 0.011
379.50 0.016
379.00 0.021
378.50 0.025
378.00 0.027
377.50 0.027
377.00 0.027
376.50 0.026
376.00 0.028
375.50 0.029
375.00 0.030
374.50 0.031
374.00 0.031
373.50 0.032
373.00 0.033
372.50 0.034
372.00 0.035
371.50 0.036
371.00 0.037
370.50 0.038
370.00 0.039
369.50 0.040
369.00 0.041
368.50 0.043
368.00 0.044
367.50 0.044
367.00 0.045
366.50 0.046
366.00 0.046
365.50 0.047
365.00 0.047
364.50 0.048
364.00 0.049
363.50 0.051
363.00 0.052
362.50 0.054
362.00 0.055
361.50 0.057
361.00 0.059
360.50 0.060
360.00 0.062
359.50 0.063
359.00 0.064
358.50 0.065
358.00 0.065
357.50 0.066
357.00 0.068
356.50 0.069
356.00 0.071
355.50 0.072
355.00 0.074
354.50 0.075
354.00 0.077
353.50 0.079
353.00 0.081
352.50 0.083
352.00 0.086
351.50 0.089
351.00 0.091
350.50 0.092
350.00 0.093
349.50 0.094
349.00 0.095
348.50 0.096
348.00 0.098
347.50 0.099
347.00 0.100
346.50 0.101
346.00 0.101
345.50 0.102
345.00 0.103
344.50 0.105
344.00 0.107
343.50 0.108
343.00 0.104
342.50 0.113
342.00 0.121
341.50 0.122
341.00 0.113
340.50 0.095
340.00 0.071
339.50 0.046
339.00 0.025
338.50 0.009
338.00 0.002
337.50 0.002
337.00 0.008
336.50 0.014
336.00 0.010
335.50 0.010
335.00 0.011
334.50 0.011
334.00 0.011
333.50 0.011
333.00 0.011
332.50 0.011
332.00 0.012
331.50 0.012
331.00 0.012
330.50 0.013
330.00 0.013
329.50 0.014
329.00 0.014
328.50 0.015
328.00 0.015
327.50 0.016
327.00 0.016
326.50 0.016
326.00 0.016
325.50 0.017
325.00 0.017
324.50 0.018
324.00 0.018
323.50 0.019
323.00 0.019
322.50 0.020
322.00 0.020
321.50 0.021
321.00 0.022
320.50 0.022
320.00 0.022
319.50 0.023
319.00 0.023
318.50 0.024
318.00 0.024
317.50 0.025
317.00 0.025
316.50 0.025
316.00 0.026
315.50 0.026
315.00 0.027
314.50 0.028
314.00 0.028
313.50 0.029
313.00 0.031
312.50 0.032
312.00 0.033
311.50 0.035
311.00 0.037
310.50 0.039
310.00 0.042
309.50 0.046
309.00 0.050
308.50 0.054
308.00 0.059
307.50 0.064
307.00 0.070
306.50 0.076
306.00 0.084
305.50 0.092
305.00 0.102
304.50 0.112
304.00 0.123
303.50 0.135
303.00 0.148
302.50 0.162
302.00 0.178
301.50 0.193
301.00 0.209
300.50 0.225
300.00 0.240
299.50 0.255
299.00 0.270
298.50 0.284
298.00 0.297
297.50 0.309
297.00 0.320
296.50 0.331
296.00 0.341
295.50 0.350
295.00 0.359
294.50 0.368
294.00 0.376
293.50 0.383
293.00 0.390
292.50 0.396
292.00 0.400
291.50 0.404
291.00 0.406
290.50 0.408
290.00 0.408
289.50 0.408
289.00 0.407
288.50 0.405
288.00 0.403
287.50 0.400
287.00 0.398
286.50 0.395
286.00 0.391
285.50 0.386
285.00 0.382
284.50 0.376
284.00 0.371
283.50 0.364
283.00 0.357
282.50 0.349
282.00 0.341
281.50 0.332
281.00 0.323
280.50 0.314
280.00 0.304
279.50 0.295
279.00 0.286
278.50 0.277
278.00 0.268
277.50 0.261
277.00 0.253
276.50 0.246
276.00 0.239
275.50 0.232
275.00 0.225
274.50 0.218
274.00 0.212
273.50 0.205
273.00 0.199
272.50 0.193
272.00 0.187
271.50 0.182
271.00 0.177
270.50 0.173
270.00 0.169
269.50 0.166
269.00 0.164
268.50 0.162
268.00 0.160
267.50 0.160
267.00 0.159
266.50 0.160
266.00 0.160
265.50 0.161
265.00 0.163
264.50 0.165
264.00 0.168
263.50 0.171
263.00 0.175
262.50 0.180
262.00 0.187
261.50 0.193
261.00 0.201
260.50 0.209
260.00 0.219
259.50 0.229
259.00 0.240
258.50 0.251
258.00 0.264
257.50 0.276
257.00 0.290
256.50 0.304
256.00 0.318
255.50 0.333
255.00 0.349
254.50 0.365
254.00 0.381
253.50 0.398
253.00 0.415
252.50 0.431
252.00 0.448
251.50 0.465
251.00 0.481
250.50 0.494
250.00 0.503
##END=
