##TITLE= WL Accuracy at 546.1nm
##JCAMP-DX= 4.24
##DATA TYPE= UV/VIS SPECTRUM
##ORIGIN= 
##OWNER= Benson
##DATE= 14:04:13, 05/23/2025
##SAMPLE DESCRIPTION= 
##SPECTROMETER/DATA SYSTEM= Hitachi Model U-3900H Spectrophotometer;
Serial Number: 2089-010;
ROM Version: 2J25300 07;
##INSTRUMENT PARAMETERS= Scan Speed= 300 nm/min;
Delay= 0 s;
Cycle Time= 0 min;
Replicates= 1;
Auto Zero before each run= On;
Wavelength of Auto Zero before each run= 400.00 nm;
Slit Width= 2 nm;
PMT Voltage= Auto;
Lamp Change Mode= Auto;
Lamp Change Wavelength= 340.00 nm;
Baseline Correction= User 1(User One);
High Resolution= Off;
D2 Lamp= On;
WI Lamp= On;
R/S Reverse= Off;
##DELTAX= -0.50
##PATH_LENGTH= 10.0mm
##XLABEL= nm
##YLABEL= Abs
##XUNITS= NANOMETERS
##YUNITS= ABSORBANCE
##XFACTOR= 1.0
##YFACTOR= 1.0
##FIRSTX= 400.00
##LASTX= 250.00
##NPOINTS= 301
##XYDATA= (X++(Y..Y))
400.00 0.000
399.50 0.000
399.00 0.001
398.50 0.001
398.00 0.001
397.50 0.001
397.00 0.001
396.50 0.002
396.00 0.002
395.50 0.002
395.00 0.002
394.50 0.002
394.00 0.002
393.50 0.002
393.00 0.002
392.50 0.002
392.00 0.002
391.50 0.003
391.00 0.003
390.50 0.003
390.00 0.003
389.50 0.003
389.00 0.003
388.50 0.003
388.00 0.004
387.50 0.004
387.00 0.004
386.50 0.004
386.00 0.005
385.50 0.005
385.00 0.005
384.50 0.005
384.00 0.005
383.50 0.005
383.00 0.007
382.50 0.006
382.00 0.005
381.50 0.005
381.00 0.006
380.50 0.009
380.00 0.013
379.50 0.018
379.00 0.023
378.50 0.027
378.00 0.029
377.50 0.030
377.00 0.029
376.50 0.028
376.00 0.030
375.50 0.031
375.00 0.032
374.50 0.032
374.00 0.033
373.50 0.034
373.00 0.035
372.50 0.036
372.00 0.037
371.50 0.038
371.00 0.039
370.50 0.040
370.00 0.041
369.50 0.043
369.00 0.044
368.50 0.045
368.00 0.046
367.50 0.047
367.00 0.047
366.50 0.048
366.00 0.048
365.50 0.049
365.00 0.050
364.50 0.050
364.00 0.052
363.50 0.053
363.00 0.055
362.50 0.057
362.00 0.058
361.50 0.060
361.00 0.062
360.50 0.063
360.00 0.065
359.50 0.066
359.00 0.067
358.50 0.068
358.00 0.069
357.50 0.070
357.00 0.071
356.50 0.073
356.00 0.074
355.50 0.076
355.00 0.078
354.50 0.079
354.00 0.081
353.50 0.082
353.00 0.085
352.50 0.087
352.00 0.090
351.50 0.093
351.00 0.095
350.50 0.097
350.00 0.098
349.50 0.099
349.00 0.100
348.50 0.101
348.00 0.103
347.50 0.104
347.00 0.106
346.50 0.107
346.00 0.109
345.50 0.110
345.00 0.111
344.50 0.113
344.00 0.115
343.50 0.118
343.00 0.115
342.50 0.125
342.00 0.134
341.50 0.136
341.00 0.129
340.50 0.112
340.00 0.090
339.50 0.067
339.00 0.047
338.50 0.034
338.00 0.029
337.50 0.032
337.00 0.042
336.50 0.051
336.00 0.050
335.50 0.055
335.00 0.059
334.50 0.064
334.00 0.069
333.50 0.075
333.00 0.081
332.50 0.088
332.00 0.096
331.50 0.106
331.00 0.115
330.50 0.125
330.00 0.137
329.50 0.148
329.00 0.160
328.50 0.172
328.00 0.185
327.50 0.198
327.00 0.211
326.50 0.226
326.00 0.240
325.50 0.255
325.00 0.270
324.50 0.286
324.00 0.302
323.50 0.319
323.00 0.336
322.50 0.354
322.00 0.371
321.50 0.389
321.00 0.406
320.50 0.423
320.00 0.439
319.50 0.454
319.00 0.467
318.50 0.480
318.00 0.492
317.50 0.502
317.00 0.511
316.50 0.520
316.00 0.527
315.50 0.533
315.00 0.538
314.50 0.544
314.00 0.548
313.50 0.551
313.00 0.554
312.50 0.557
312.00 0.559
311.50 0.559
311.00 0.560
310.50 0.560
310.00 0.559
309.50 0.557
309.00 0.555
308.50 0.552
308.00 0.549
307.50 0.545
307.00 0.541
306.50 0.536
306.00 0.532
305.50 0.527
305.00 0.522
304.50 0.516
304.00 0.510
303.50 0.504
303.00 0.497
302.50 0.490
302.00 0.483
301.50 0.476
301.00 0.469
300.50 0.462
300.00 0.454
299.50 0.446
299.00 0.439
298.50 0.431
298.00 0.424
297.50 0.416
297.00 0.409
296.50 0.402
296.00 0.395
295.50 0.388
295.00 0.381
294.50 0.374
294.00 0.366
293.50 0.359
293.00 0.352
292.50 0.344
292.00 0.337
291.50 0.329
291.00 0.322
290.50 0.315
290.00 0.307
289.50 0.300
289.00 0.294
288.50 0.287
288.00 0.282
287.50 0.277
287.00 0.272
286.50 0.268
286.00 0.263
285.50 0.259
285.00 0.256
284.50 0.252
284.00 0.248
283.50 0.245
283.00 0.242
282.50 0.240
282.00 0.237
281.50 0.235
281.00 0.234
280.50 0.233
280.00 0.233
279.50 0.233
279.00 0.234
278.50 0.235
278.00 0.238
277.50 0.241
277.00 0.245
276.50 0.249
276.00 0.255
275.50 0.261
275.00 0.267
274.50 0.274
274.00 0.283
273.50 0.293
273.00 0.303
272.50 0.315
272.00 0.328
271.50 0.342
271.00 0.357
270.50 0.374
270.00 0.391
269.50 0.409
269.00 0.427
268.50 0.446
268.00 0.465
267.50 0.483
267.00 0.503
266.50 0.522
266.00 0.542
265.50 0.562
265.00 0.582
264.50 0.602
264.00 0.623
263.50 0.644
263.00 0.665
262.50 0.686
262.00 0.708
261.50 0.728
261.00 0.749
260.50 0.769
260.00 0.788
259.50 0.806
259.00 0.824
258.50 0.841
258.00 0.857
257.50 0.871
257.00 0.885
256.50 0.899
256.00 0.911
255.50 0.923
255.00 0.935
254.50 0.947
254.00 0.959
253.50 0.971
253.00 0.982
252.50 0.994
252.00 1.006
251.50 1.019
251.00 1.032
250.50 1.043
250.00 1.050
##END=
