##TITLE= WL Accuracy at 546.1nm
##JCAMP-DX= 4.24
##DATA TYPE= UV/VIS SPECTRUM
##ORIGIN= 
##OWNER= Benson
##DATE= 13:16:14, 05/23/2025
##SAMPLE DESCRIPTION= 
##SPECTROMETER/DATA SYSTEM= Hitachi Model U-3900H Spectrophotometer;
Serial Number: 2089-010;
ROM Version: 2J25300 07;
##INSTRUMENT PARAMETERS= Scan Speed= 300 nm/min;
Delay= 0 s;
Cycle Time= 0 min;
Replicates= 1;
Auto Zero before each run= On;
Wavelength of Auto Zero before each run= 400.00 nm;
Slit Width= 2 nm;
PMT Voltage= Auto;
Lamp Change Mode= Auto;
Lamp Change Wavelength= 340.00 nm;
Baseline Correction= User 1(User One);
High Resolution= Off;
D2 Lamp= On;
WI Lamp= On;
R/S Reverse= Off;
##DELTAX= -0.50
##PATH_LENGTH= 10.0mm
##XLABEL= nm
##YLABEL= Abs
##XUNITS= NANOMETERS
##YUNITS= ABSORBANCE
##XFACTOR= 1.0
##YFACTOR= 1.0
##FIRSTX= 400.00
##LASTX= 250.00
##NPOINTS= 301
##XYDATA= (X++(Y..Y))
400.00 0.000
399.50 0.000
399.00 0.000
398.50 0.000
398.00 0.000
397.50 0.001
397.00 0.001
396.50 0.001
396.00 0.001
395.50 0.001
395.00 0.001
394.50 0.001
394.00 0.001
393.50 0.001
393.00 0.001
392.50 0.001
392.00 0.001
391.50 0.002
391.00 0.002
390.50 0.002
390.00 0.002
389.50 0.002
389.00 0.002
388.50 0.002
388.00 0.003
387.50 0.003
387.00 0.003
386.50 0.003
386.00 0.003
385.50 0.003
385.00 0.003
384.50 0.003
384.00 0.004
383.50 0.004
383.00 0.005
382.50 0.004
382.00 0.003
381.50 0.003
381.00 0.004
380.50 0.007
380.00 0.011
379.50 0.016
379.00 0.021
378.50 0.024
378.00 0.027
377.50 0.027
377.00 0.027
376.50 0.027
376.00 0.028
375.50 0.029
375.00 0.030
374.50 0.030
374.00 0.031
373.50 0.032
373.00 0.033
372.50 0.034
372.00 0.035
371.50 0.036
371.00 0.037
370.50 0.038
370.00 0.039
369.50 0.041
369.00 0.042
368.50 0.043
368.00 0.044
367.50 0.045
367.00 0.045
366.50 0.046
366.00 0.046
365.50 0.047
365.00 0.048
364.50 0.049
364.00 0.050
363.50 0.051
363.00 0.053
362.50 0.055
362.00 0.056
361.50 0.058
361.00 0.060
360.50 0.061
360.00 0.063
359.50 0.064
359.00 0.065
358.50 0.066
358.00 0.067
357.50 0.068
357.00 0.069
356.50 0.070
356.00 0.072
355.50 0.074
355.00 0.075
354.50 0.077
354.00 0.078
353.50 0.080
353.00 0.082
352.50 0.085
352.00 0.087
351.50 0.090
351.00 0.092
350.50 0.094
350.00 0.095
349.50 0.096
349.00 0.097
348.50 0.098
348.00 0.099
347.50 0.100
347.00 0.102
346.50 0.103
346.00 0.104
345.50 0.105
345.00 0.106
344.50 0.107
344.00 0.109
343.50 0.111
343.00 0.107
342.50 0.116
342.00 0.125
341.50 0.126
341.00 0.117
340.50 0.098
340.00 0.074
339.50 0.049
339.00 0.028
338.50 0.012
338.00 0.005
337.50 0.006
337.00 0.012
336.50 0.019
336.00 0.015
335.50 0.016
335.00 0.017
334.50 0.018
334.00 0.019
333.50 0.020
333.00 0.021
332.50 0.023
332.00 0.024
331.50 0.026
331.00 0.027
330.50 0.029
330.00 0.031
329.50 0.033
329.00 0.035
328.50 0.038
328.00 0.040
327.50 0.042
327.00 0.045
326.50 0.047
326.00 0.050
325.50 0.052
325.00 0.055
324.50 0.057
324.00 0.060
323.50 0.063
323.00 0.066
322.50 0.069
322.00 0.072
321.50 0.075
321.00 0.078
320.50 0.081
320.00 0.084
319.50 0.087
319.00 0.089
318.50 0.091
318.00 0.094
317.50 0.096
317.00 0.098
316.50 0.099
316.00 0.100
315.50 0.102
315.00 0.103
314.50 0.104
314.00 0.106
313.50 0.107
313.00 0.108
312.50 0.110
312.00 0.112
311.50 0.113
311.00 0.115
310.50 0.117
310.00 0.119
309.50 0.122
309.00 0.125
308.50 0.128
308.00 0.132
307.50 0.136
307.00 0.140
306.50 0.144
306.00 0.150
305.50 0.157
305.00 0.164
304.50 0.172
304.00 0.181
303.50 0.190
303.00 0.200
302.50 0.211
302.00 0.222
301.50 0.234
301.00 0.247
300.50 0.259
300.00 0.272
299.50 0.283
299.00 0.295
298.50 0.305
298.00 0.315
297.50 0.324
297.00 0.333
296.50 0.341
296.00 0.348
295.50 0.355
295.00 0.362
294.50 0.368
294.00 0.374
293.50 0.379
293.00 0.383
292.50 0.387
292.00 0.389
291.50 0.391
291.00 0.393
290.50 0.393
290.00 0.392
289.50 0.391
289.00 0.389
288.50 0.387
288.00 0.384
287.50 0.382
287.00 0.379
286.50 0.376
286.00 0.372
285.50 0.368
285.00 0.363
284.50 0.358
284.00 0.353
283.50 0.347
283.00 0.341
282.50 0.334
282.00 0.326
281.50 0.319
281.00 0.311
280.50 0.302
280.00 0.295
279.50 0.287
279.00 0.279
278.50 0.272
278.00 0.266
277.50 0.260
277.00 0.254
276.50 0.248
276.00 0.243
275.50 0.238
275.00 0.233
274.50 0.228
274.00 0.224
273.50 0.220
273.00 0.216
272.50 0.213
272.00 0.210
271.50 0.207
271.00 0.206
270.50 0.205
270.00 0.204
269.50 0.204
269.00 0.205
268.50 0.206
268.00 0.208
267.50 0.210
267.00 0.213
266.50 0.216
266.00 0.219
265.50 0.223
265.00 0.227
264.50 0.232
264.00 0.238
263.50 0.244
263.00 0.251
262.50 0.259
262.00 0.267
261.50 0.276
261.00 0.285
260.50 0.296
260.00 0.307
259.50 0.318
259.00 0.330
258.50 0.343
258.00 0.356
257.50 0.369
257.00 0.382
256.50 0.397
256.00 0.411
255.50 0.426
255.00 0.441
254.50 0.457
254.00 0.472
253.50 0.489
253.00 0.505
252.50 0.521
252.00 0.537
251.50 0.555
251.00 0.570
250.50 0.583
250.00 0.593
##END=
