##TITLE= WL Accuracy at 546.1nm
##JCAMP-DX= 4.24
##DATA TYPE= UV/VIS SPECTRUM
##ORIGIN= 
##OWNER= Benson
##DATE= 13:21:49, 05/23/2025
##SAMPLE DESCRIPTION= 
##SPECTROMETER/DATA SYSTEM= Hitachi Model U-3900H Spectrophotometer;
Serial Number: 2089-010;
ROM Version: 2J25300 07;
##INSTRUMENT PARAMETERS= Scan Speed= 300 nm/min;
Delay= 0 s;
Cycle Time= 0 min;
Replicates= 1;
Auto Zero before each run= On;
Wavelength of Auto Zero before each run= 400.00 nm;
Slit Width= 2 nm;
PMT Voltage= Auto;
Lamp Change Mode= Auto;
Lamp Change Wavelength= 340.00 nm;
Baseline Correction= User 1(User One);
High Resolution= Off;
D2 Lamp= On;
WI Lamp= On;
R/S Reverse= Off;
##DELTAX= -0.50
##PATH_LENGTH= 10.0mm
##XLABEL= nm
##YLABEL= Abs
##XUNITS= NANOMETERS
##YUNITS= ABSORBANCE
##XFACTOR= 1.0
##YFACTOR= 1.0
##FIRSTX= 400.00
##LASTX= 250.00
##NPOINTS= 301
##XYDATA= (X++(Y..Y))
400.00 0.000
399.50 0.000
399.00 0.000
398.50 0.000
398.00 0.000
397.50 0.000
397.00 0.000
396.50 0.001
396.00 0.001
395.50 0.001
395.00 0.001
394.50 0.001
394.00 0.001
393.50 0.001
393.00 0.001
392.50 0.001
392.00 0.002
391.50 0.002
391.00 0.002
390.50 0.002
390.00 0.002
389.50 0.002
389.00 0.002
388.50 0.003
388.00 0.003
387.50 0.003
387.00 0.003
386.50 0.003
386.00 0.003
385.50 0.003
385.00 0.003
384.50 0.004
384.00 0.004
383.50 0.004
383.00 0.005
382.50 0.004
382.00 0.003
381.50 0.003
381.00 0.004
380.50 0.007
380.00 0.012
379.50 0.017
379.00 0.021
378.50 0.025
378.00 0.027
377.50 0.028
377.00 0.027
376.50 0.027
376.00 0.028
375.50 0.029
375.00 0.030
374.50 0.031
374.00 0.031
373.50 0.032
373.00 0.033
372.50 0.034
372.00 0.035
371.50 0.036
371.00 0.037
370.50 0.038
370.00 0.039
369.50 0.041
369.00 0.042
368.50 0.043
368.00 0.044
367.50 0.044
367.00 0.045
366.50 0.046
366.00 0.046
365.50 0.047
365.00 0.048
364.50 0.048
364.00 0.050
363.50 0.051
363.00 0.053
362.50 0.054
362.00 0.056
361.50 0.058
361.00 0.059
360.50 0.061
360.00 0.062
359.50 0.063
359.00 0.064
358.50 0.065
358.00 0.066
357.50 0.067
357.00 0.069
356.50 0.070
356.00 0.072
355.50 0.073
355.00 0.075
354.50 0.076
354.00 0.078
353.50 0.080
353.00 0.082
352.50 0.085
352.00 0.087
351.50 0.090
351.00 0.092
350.50 0.094
350.00 0.095
349.50 0.096
349.00 0.097
348.50 0.098
348.00 0.099
347.50 0.100
347.00 0.102
346.50 0.103
346.00 0.104
345.50 0.105
345.00 0.106
344.50 0.108
344.00 0.110
343.50 0.112
343.00 0.108
342.50 0.117
342.00 0.125
341.50 0.127
341.00 0.118
340.50 0.099
340.00 0.075
339.50 0.051
339.00 0.030
338.50 0.015
338.00 0.008
337.50 0.009
337.00 0.015
336.50 0.022
336.00 0.019
335.50 0.020
335.00 0.022
334.50 0.023
334.00 0.024
333.50 0.026
333.00 0.027
332.50 0.029
332.00 0.032
331.50 0.034
331.00 0.037
330.50 0.040
330.00 0.042
329.50 0.046
329.00 0.049
328.50 0.052
328.00 0.056
327.50 0.060
327.00 0.063
326.50 0.067
326.00 0.071
325.50 0.074
325.00 0.078
324.50 0.083
324.00 0.087
323.50 0.091
323.00 0.096
322.50 0.101
322.00 0.105
321.50 0.110
321.00 0.114
320.50 0.119
320.00 0.124
319.50 0.128
319.00 0.131
318.50 0.134
318.00 0.138
317.50 0.140
317.00 0.143
316.50 0.145
316.00 0.148
315.50 0.150
315.00 0.152
314.50 0.153
314.00 0.155
313.50 0.157
313.00 0.158
312.50 0.160
312.00 0.161
311.50 0.162
311.00 0.164
310.50 0.166
310.00 0.167
309.50 0.170
309.00 0.172
308.50 0.175
308.00 0.178
307.50 0.181
307.00 0.184
306.50 0.188
306.00 0.192
305.50 0.198
305.00 0.203
304.50 0.210
304.00 0.217
303.50 0.225
303.00 0.233
302.50 0.242
302.00 0.251
301.50 0.262
301.00 0.272
300.50 0.282
300.00 0.292
299.50 0.301
299.00 0.310
298.50 0.319
298.00 0.327
297.50 0.334
297.00 0.341
296.50 0.348
296.00 0.354
295.50 0.359
295.00 0.364
294.50 0.369
294.00 0.373
293.50 0.376
293.00 0.379
292.50 0.382
292.00 0.384
291.50 0.384
291.00 0.384
290.50 0.384
290.00 0.383
289.50 0.380
289.00 0.378
288.50 0.376
288.00 0.373
287.50 0.370
287.00 0.367
286.50 0.363
286.00 0.359
285.50 0.355
285.00 0.350
284.50 0.346
284.00 0.341
283.50 0.335
283.00 0.329
282.50 0.323
282.00 0.316
281.50 0.309
281.00 0.302
280.50 0.295
280.00 0.288
279.50 0.281
279.00 0.274
278.50 0.268
278.00 0.262
277.50 0.257
277.00 0.252
276.50 0.248
276.00 0.243
275.50 0.240
275.00 0.236
274.50 0.233
274.00 0.230
273.50 0.227
273.00 0.225
272.50 0.223
272.00 0.223
271.50 0.222
271.00 0.222
270.50 0.223
270.00 0.224
269.50 0.226
269.00 0.228
268.50 0.231
268.00 0.235
267.50 0.239
267.00 0.243
266.50 0.248
266.00 0.254
265.50 0.260
265.00 0.266
264.50 0.272
264.00 0.280
263.50 0.287
263.00 0.296
262.50 0.304
262.00 0.314
261.50 0.324
261.00 0.335
260.50 0.346
260.00 0.358
259.50 0.370
259.00 0.383
258.50 0.396
258.00 0.409
257.50 0.422
257.00 0.436
256.50 0.450
256.00 0.464
255.50 0.478
255.00 0.493
254.50 0.508
254.00 0.524
253.50 0.539
253.00 0.555
252.50 0.570
252.00 0.586
251.50 0.603
251.00 0.618
250.50 0.631
250.00 0.640
##END=
