##TITLE= WL Accuracy at 546.1nm
##JCAMP-DX= 4.24
##DATA TYPE= UV/VIS SPECTRUM
##ORIGIN= 
##OWNER= Benson
##DATE= 14:00:49, 05/23/2025
##SAMPLE DESCRIPTION= 
##SPECTROMETER/DATA SYSTEM= Hitachi Model U-3900H Spectrophotometer;
Serial Number: 2089-010;
ROM Version: 2J25300 07;
##INSTRUMENT PARAMETERS= Scan Speed= 300 nm/min;
Delay= 0 s;
Cycle Time= 0 min;
Replicates= 1;
Auto Zero before each run= On;
Wavelength of Auto Zero before each run= 400.00 nm;
Slit Width= 2 nm;
PMT Voltage= Auto;
Lamp Change Mode= Auto;
Lamp Change Wavelength= 340.00 nm;
Baseline Correction= User 1(User One);
High Resolution= Off;
D2 Lamp= On;
WI Lamp= On;
R/S Reverse= Off;
##DELTAX= -0.50
##PATH_LENGTH= 10.0mm
##XLABEL= nm
##YLABEL= Abs
##XUNITS= NANOMETERS
##YUNITS= ABSORBANCE
##XFACTOR= 1.0
##YFACTOR= 1.0
##FIRSTX= 400.00
##LASTX= 250.00
##NPOINTS= 301
##XYDATA= (X++(Y..Y))
400.00 0.000
399.50 0.000
399.00 0.000
398.50 0.000
398.00 0.000
397.50 0.001
397.00 0.001
396.50 0.001
396.00 0.001
395.50 0.001
395.00 0.001
394.50 0.001
394.00 0.001
393.50 0.001
393.00 0.001
392.50 0.001
392.00 0.002
391.50 0.002
391.00 0.002
390.50 0.002
390.00 0.002
389.50 0.003
389.00 0.003
388.50 0.003
388.00 0.003
387.50 0.003
387.00 0.004
386.50 0.004
386.00 0.004
385.50 0.004
385.00 0.004
384.50 0.004
384.00 0.004
383.50 0.005
383.00 0.006
382.50 0.005
382.00 0.004
381.50 0.004
381.00 0.005
380.50 0.008
380.00 0.013
379.50 0.017
379.00 0.022
378.50 0.025
378.00 0.027
377.50 0.028
377.00 0.028
376.50 0.028
376.00 0.030
375.50 0.031
375.00 0.031
374.50 0.032
374.00 0.032
373.50 0.033
373.00 0.034
372.50 0.035
372.00 0.036
371.50 0.037
371.00 0.039
370.50 0.040
370.00 0.041
369.50 0.042
369.00 0.043
368.50 0.044
368.00 0.045
367.50 0.046
367.00 0.047
366.50 0.047
366.00 0.048
365.50 0.049
365.00 0.050
364.50 0.050
364.00 0.051
363.50 0.052
363.00 0.054
362.50 0.056
362.00 0.058
361.50 0.060
361.00 0.062
360.50 0.063
360.00 0.064
359.50 0.065
359.00 0.066
358.50 0.067
358.00 0.069
357.50 0.070
357.00 0.071
356.50 0.072
356.00 0.074
355.50 0.075
355.00 0.077
354.50 0.079
354.00 0.081
353.50 0.083
353.00 0.085
352.50 0.088
352.00 0.090
351.50 0.093
351.00 0.095
350.50 0.097
350.00 0.099
349.50 0.100
349.00 0.101
348.50 0.102
348.00 0.104
347.50 0.105
347.00 0.106
346.50 0.107
346.00 0.109
345.50 0.110
345.00 0.112
344.50 0.114
344.00 0.116
343.50 0.118
343.00 0.115
342.50 0.124
342.00 0.134
341.50 0.136
341.00 0.129
340.50 0.112
340.00 0.090
339.50 0.067
339.00 0.048
338.50 0.034
338.00 0.029
337.50 0.032
337.00 0.041
336.50 0.050
336.00 0.049
335.50 0.053
335.00 0.057
334.50 0.062
334.00 0.067
333.50 0.072
333.00 0.078
332.50 0.085
332.00 0.092
331.50 0.101
331.00 0.110
330.50 0.120
330.00 0.130
329.50 0.141
329.00 0.152
328.50 0.164
328.00 0.176
327.50 0.189
327.00 0.202
326.50 0.215
326.00 0.228
325.50 0.242
325.00 0.256
324.50 0.272
324.00 0.287
323.50 0.303
323.00 0.319
322.50 0.336
322.00 0.353
321.50 0.369
321.00 0.385
320.50 0.401
320.00 0.416
319.50 0.430
319.00 0.443
318.50 0.456
318.00 0.467
317.50 0.476
317.00 0.485
316.50 0.493
316.00 0.500
315.50 0.506
315.00 0.511
314.50 0.516
314.00 0.520
313.50 0.523
313.00 0.526
312.50 0.529
312.00 0.531
311.50 0.532
311.00 0.532
310.50 0.532
310.00 0.531
309.50 0.530
309.00 0.528
308.50 0.526
308.00 0.523
307.50 0.519
307.00 0.516
306.50 0.512
306.00 0.508
305.50 0.504
305.00 0.500
304.50 0.495
304.00 0.491
303.50 0.485
303.00 0.480
302.50 0.474
302.00 0.468
301.50 0.462
301.00 0.456
300.50 0.450
300.00 0.444
299.50 0.437
299.00 0.431
298.50 0.425
298.00 0.419
297.50 0.412
297.00 0.406
296.50 0.400
296.00 0.394
295.50 0.388
295.00 0.382
294.50 0.376
294.00 0.370
293.50 0.363
293.00 0.356
292.50 0.349
292.00 0.343
291.50 0.336
291.00 0.329
290.50 0.322
290.00 0.316
289.50 0.309
289.00 0.303
288.50 0.297
288.00 0.292
287.50 0.287
287.00 0.282
286.50 0.277
286.00 0.273
285.50 0.269
285.00 0.265
284.50 0.261
284.00 0.258
283.50 0.255
283.00 0.252
282.50 0.249
282.00 0.246
281.50 0.244
281.00 0.242
280.50 0.241
280.00 0.240
279.50 0.239
279.00 0.240
278.50 0.241
278.00 0.243
277.50 0.245
277.00 0.248
276.50 0.252
276.00 0.257
275.50 0.262
275.00 0.268
274.50 0.275
274.00 0.283
273.50 0.291
273.00 0.301
272.50 0.312
272.00 0.324
271.50 0.337
271.00 0.351
270.50 0.366
270.00 0.382
269.50 0.399
269.00 0.416
268.50 0.433
268.00 0.451
267.50 0.469
267.00 0.487
266.50 0.506
266.00 0.525
265.50 0.543
265.00 0.563
264.50 0.582
264.00 0.602
263.50 0.621
263.00 0.642
262.50 0.662
262.00 0.683
261.50 0.702
261.00 0.723
260.50 0.742
260.00 0.760
259.50 0.777
259.00 0.795
258.50 0.811
258.00 0.826
257.50 0.840
257.00 0.855
256.50 0.868
256.00 0.881
255.50 0.893
255.00 0.905
254.50 0.917
254.00 0.929
253.50 0.941
253.00 0.952
252.50 0.964
252.00 0.976
251.50 0.989
251.00 1.002
250.50 1.013
250.00 1.021
##END=
