##TITLE= WL Accuracy at 546.1nm
##JCAMP-DX= 4.24
##DATA TYPE= UV/VIS SPECTRUM
##ORIGIN= 
##OWNER= Benson
##DATE= 14:23:10, 05/23/2025
##SAMPLE DESCRIPTION= 
##SPECTROMETER/DATA SYSTEM= Hitachi Model U-3900H Spectrophotometer;
Serial Number: 2089-010;
ROM Version: 2J25300 07;
##INSTRUMENT PARAMETERS= Scan Speed= 300 nm/min;
Delay= 0 s;
Cycle Time= 0 min;
Replicates= 1;
Auto Zero before each run= On;
Wavelength of Auto Zero before each run= 400.00 nm;
Slit Width= 2 nm;
PMT Voltage= Auto;
Lamp Change Mode= Auto;
Lamp Change Wavelength= 340.00 nm;
Baseline Correction= User 1(User One);
High Resolution= Off;
D2 Lamp= On;
WI Lamp= On;
R/S Reverse= Off;
##DELTAX= -0.50
##PATH_LENGTH= 10.0mm
##XLABEL= nm
##YLABEL= Abs
##XUNITS= NANOMETERS
##YUNITS= ABSORBANCE
##XFACTOR= 1.0
##YFACTOR= 1.0
##FIRSTX= 400.00
##LASTX= 250.00
##NPOINTS= 301
##XYDATA= (X++(Y..Y))
400.00 0.000
399.50 0.000
399.00 0.001
398.50 0.001
398.00 0.001
397.50 0.001
397.00 0.001
396.50 0.001
396.00 0.001
395.50 0.002
395.00 0.001
394.50 0.001
394.00 0.002
393.50 0.002
393.00 0.002
392.50 0.002
392.00 0.002
391.50 0.002
391.00 0.002
390.50 0.003
390.00 0.003
389.50 0.003
389.00 0.003
388.50 0.003
388.00 0.003
387.50 0.004
387.00 0.004
386.50 0.004
386.00 0.004
385.50 0.004
385.00 0.004
384.50 0.005
384.00 0.005
383.50 0.005
383.00 0.006
382.50 0.005
382.00 0.004
381.50 0.004
381.00 0.006
380.50 0.009
380.00 0.013
379.50 0.018
379.00 0.022
378.50 0.026
378.00 0.028
377.50 0.028
377.00 0.028
376.50 0.028
376.00 0.030
375.50 0.031
375.00 0.032
374.50 0.032
374.00 0.033
373.50 0.033
373.00 0.034
372.50 0.035
372.00 0.036
371.50 0.037
371.00 0.038
370.50 0.040
370.00 0.041
369.50 0.042
369.00 0.043
368.50 0.044
368.00 0.045
367.50 0.046
367.00 0.046
366.50 0.047
366.00 0.048
365.50 0.048
365.00 0.049
364.50 0.050
364.00 0.051
363.50 0.052
363.00 0.054
362.50 0.056
362.00 0.057
361.50 0.059
361.00 0.061
360.50 0.063
360.00 0.064
359.50 0.065
359.00 0.065
358.50 0.067
358.00 0.068
357.50 0.069
357.00 0.070
356.50 0.072
356.00 0.073
355.50 0.075
355.00 0.077
354.50 0.078
354.00 0.080
353.50 0.082
353.00 0.084
352.50 0.087
352.00 0.090
351.50 0.092
351.00 0.095
350.50 0.096
350.00 0.098
349.50 0.099
349.00 0.100
348.50 0.101
348.00 0.103
347.50 0.104
347.00 0.106
346.50 0.107
346.00 0.108
345.50 0.110
345.00 0.111
344.50 0.113
344.00 0.116
343.50 0.118
343.00 0.116
342.50 0.125
342.00 0.135
341.50 0.138
341.00 0.130
340.50 0.113
340.00 0.091
339.50 0.069
339.00 0.049
338.50 0.036
338.00 0.031
337.50 0.035
337.00 0.045
336.50 0.055
336.00 0.054
335.50 0.059
335.00 0.065
334.50 0.070
334.00 0.077
333.50 0.083
333.00 0.091
332.50 0.100
332.00 0.110
331.50 0.119
331.00 0.130
330.50 0.142
330.00 0.155
329.50 0.168
329.00 0.182
328.50 0.197
328.00 0.213
327.50 0.228
327.00 0.244
326.50 0.260
326.00 0.276
325.50 0.292
325.00 0.310
324.50 0.328
324.00 0.348
323.50 0.367
323.00 0.387
322.50 0.407
322.00 0.427
321.50 0.447
321.00 0.467
320.50 0.487
320.00 0.505
319.50 0.522
319.00 0.539
318.50 0.553
318.00 0.566
317.50 0.577
317.00 0.588
316.50 0.597
316.00 0.605
315.50 0.612
315.00 0.619
314.50 0.625
314.00 0.629
313.50 0.633
313.00 0.637
312.50 0.639
312.00 0.641
311.50 0.641
311.00 0.641
310.50 0.640
310.00 0.639
309.50 0.636
309.00 0.634
308.50 0.630
308.00 0.625
307.50 0.619
307.00 0.614
306.50 0.607
306.00 0.600
305.50 0.593
305.00 0.586
304.50 0.577
304.00 0.568
303.50 0.560
303.00 0.550
302.50 0.540
302.00 0.529
301.50 0.518
301.00 0.507
300.50 0.495
300.00 0.484
299.50 0.473
299.00 0.462
298.50 0.451
298.00 0.440
297.50 0.430
297.00 0.419
296.50 0.409
296.00 0.399
295.50 0.390
295.00 0.380
294.50 0.371
294.00 0.361
293.50 0.351
293.00 0.342
292.50 0.332
292.00 0.322
291.50 0.313
291.00 0.304
290.50 0.295
290.00 0.287
289.50 0.279
289.00 0.271
288.50 0.264
288.00 0.259
287.50 0.253
287.00 0.248
286.50 0.243
286.00 0.239
285.50 0.235
285.00 0.231
284.50 0.227
284.00 0.224
283.50 0.222
283.00 0.220
282.50 0.218
282.00 0.216
281.50 0.216
281.00 0.215
280.50 0.216
280.00 0.218
279.50 0.219
279.00 0.222
278.50 0.226
278.00 0.230
277.50 0.234
277.00 0.240
276.50 0.247
276.00 0.254
275.50 0.262
275.00 0.271
274.50 0.281
274.00 0.292
273.50 0.304
273.00 0.317
272.50 0.332
272.00 0.347
271.50 0.365
271.00 0.383
270.50 0.403
270.00 0.423
269.50 0.445
269.00 0.466
268.50 0.489
268.00 0.511
267.50 0.533
267.00 0.556
266.50 0.578
266.00 0.601
265.50 0.625
265.00 0.648
264.50 0.671
264.00 0.694
263.50 0.719
263.00 0.743
262.50 0.767
262.00 0.790
261.50 0.815
261.00 0.838
260.50 0.861
260.00 0.882
259.50 0.903
259.00 0.922
258.50 0.940
258.00 0.957
257.50 0.973
257.00 0.988
256.50 1.002
256.00 1.015
255.50 1.029
255.00 1.042
254.50 1.054
254.00 1.066
253.50 1.079
253.00 1.091
252.50 1.103
252.00 1.117
251.50 1.132
251.00 1.146
250.50 1.159
250.00 1.168
##END=
