##TITLE= WL Accuracy at 546.1nm
##JCAMP-DX= 4.24
##DATA TYPE= UV/VIS SPECTRUM
##ORIGIN= 
##OWNER= Benson
##DATE= 14:37:26, 05/23/2025
##SAMPLE DESCRIPTION= 
##SPECTROMETER/DATA SYSTEM= Hitachi Model U-3900H Spectrophotometer;
Serial Number: 2089-010;
ROM Version: 2J25300 07;
##INSTRUMENT PARAMETERS= Scan Speed= 300 nm/min;
Delay= 0 s;
Cycle Time= 0 min;
Replicates= 1;
Auto Zero before each run= On;
Wavelength of Auto Zero before each run= 400.00 nm;
Slit Width= 2 nm;
PMT Voltage= Auto;
Lamp Change Mode= Auto;
Lamp Change Wavelength= 340.00 nm;
Baseline Correction= User 1(User One);
High Resolution= Off;
D2 Lamp= On;
WI Lamp= On;
R/S Reverse= Off;
##DELTAX= -0.50
##PATH_LENGTH= 10.0mm
##XLABEL= nm
##YLABEL= Abs
##XUNITS= NANOMETERS
##YUNITS= ABSORBANCE
##XFACTOR= 1.0
##YFACTOR= 1.0
##FIRSTX= 400.00
##LASTX= 250.00
##NPOINTS= 301
##XYDATA= (X++(Y..Y))
400.00 0.000
399.50 0.000
399.00 0.000
398.50 0.000
398.00 0.000
397.50 0.000
397.00 0.000
396.50 0.001
396.00 0.001
395.50 0.001
395.00 0.001
394.50 0.001
394.00 0.001
393.50 0.001
393.00 0.001
392.50 0.001
392.00 0.002
391.50 0.002
391.00 0.002
390.50 0.002
390.00 0.002
389.50 0.002
389.00 0.003
388.50 0.003
388.00 0.003
387.50 0.003
387.00 0.003
386.50 0.003
386.00 0.003
385.50 0.003
385.00 0.004
384.50 0.004
384.00 0.005
383.50 0.005
383.00 0.006
382.50 0.005
382.00 0.004
381.50 0.003
381.00 0.005
380.50 0.008
380.00 0.013
379.50 0.018
379.00 0.023
378.50 0.026
378.00 0.028
377.50 0.029
377.00 0.028
376.50 0.028
376.00 0.030
375.50 0.031
375.00 0.032
374.50 0.033
374.00 0.033
373.50 0.034
373.00 0.035
372.50 0.036
372.00 0.037
371.50 0.038
371.00 0.039
370.50 0.040
370.00 0.042
369.50 0.043
369.00 0.044
368.50 0.045
368.00 0.046
367.50 0.047
367.00 0.048
366.50 0.048
366.00 0.049
365.50 0.049
365.00 0.050
364.50 0.051
364.00 0.052
363.50 0.054
363.00 0.056
362.50 0.058
362.00 0.059
361.50 0.061
361.00 0.063
360.50 0.064
360.00 0.066
359.50 0.067
359.00 0.068
358.50 0.069
358.00 0.070
357.50 0.071
357.00 0.072
356.50 0.074
356.00 0.075
355.50 0.077
355.00 0.079
354.50 0.080
354.00 0.082
353.50 0.084
353.00 0.086
352.50 0.089
352.00 0.092
351.50 0.094
351.00 0.097
350.50 0.099
350.00 0.101
349.50 0.102
349.00 0.103
348.50 0.104
348.00 0.105
347.50 0.107
347.00 0.108
346.50 0.110
346.00 0.112
345.50 0.113
345.00 0.116
344.50 0.118
344.00 0.120
343.50 0.122
343.00 0.119
342.50 0.129
342.00 0.139
341.50 0.142
341.00 0.135
340.50 0.119
340.00 0.098
339.50 0.076
339.00 0.057
338.50 0.045
338.00 0.040
337.50 0.044
337.00 0.054
336.50 0.065
336.00 0.065
335.50 0.071
335.00 0.076
334.50 0.082
334.00 0.089
333.50 0.097
333.00 0.105
332.50 0.114
332.00 0.125
331.50 0.135
331.00 0.147
330.50 0.160
330.00 0.175
329.50 0.189
329.00 0.204
328.50 0.220
328.00 0.237
327.50 0.253
327.00 0.270
326.50 0.286
326.00 0.304
325.50 0.321
325.00 0.341
324.50 0.360
324.00 0.381
323.50 0.401
323.00 0.423
322.50 0.444
322.00 0.466
321.50 0.487
321.00 0.509
320.50 0.529
320.00 0.548
319.50 0.566
319.00 0.583
318.50 0.598
318.00 0.612
317.50 0.624
317.00 0.636
316.50 0.646
316.00 0.654
315.50 0.662
315.00 0.669
314.50 0.675
314.00 0.680
313.50 0.684
313.00 0.688
312.50 0.690
312.00 0.692
311.50 0.693
311.00 0.693
310.50 0.692
310.00 0.690
309.50 0.688
309.00 0.685
308.50 0.680
308.00 0.675
307.50 0.669
307.00 0.663
306.50 0.656
306.00 0.649
305.50 0.641
305.00 0.632
304.50 0.623
304.00 0.613
303.50 0.603
303.00 0.592
302.50 0.581
302.00 0.568
301.50 0.556
301.00 0.543
300.50 0.530
300.00 0.517
299.50 0.505
299.00 0.492
298.50 0.480
298.00 0.468
297.50 0.457
297.00 0.445
296.50 0.434
296.00 0.423
295.50 0.413
295.00 0.402
294.50 0.392
294.00 0.381
293.50 0.371
293.00 0.360
292.50 0.350
292.00 0.339
291.50 0.330
291.00 0.320
290.50 0.311
290.00 0.302
289.50 0.294
289.00 0.286
288.50 0.279
288.00 0.273
287.50 0.268
287.00 0.262
286.50 0.257
286.00 0.253
285.50 0.249
285.00 0.245
284.50 0.242
284.00 0.240
283.50 0.238
283.00 0.236
282.50 0.235
282.00 0.234
281.50 0.233
281.00 0.234
280.50 0.236
280.00 0.238
279.50 0.240
279.00 0.244
278.50 0.249
278.00 0.253
277.50 0.259
277.00 0.266
276.50 0.274
276.00 0.282
275.50 0.291
275.00 0.300
274.50 0.312
274.00 0.323
273.50 0.337
273.00 0.352
272.50 0.368
272.00 0.385
271.50 0.404
271.00 0.423
270.50 0.445
270.00 0.466
269.50 0.490
269.00 0.513
268.50 0.537
268.00 0.560
267.50 0.585
267.00 0.609
266.50 0.633
266.00 0.657
265.50 0.683
265.00 0.707
264.50 0.733
264.00 0.758
263.50 0.784
263.00 0.810
262.50 0.836
262.00 0.862
261.50 0.888
261.00 0.913
260.50 0.937
260.00 0.960
259.50 0.983
259.00 1.004
258.50 1.024
258.00 1.042
257.50 1.060
257.00 1.076
256.50 1.092
256.00 1.106
255.50 1.122
255.00 1.136
254.50 1.150
254.00 1.164
253.50 1.178
253.00 1.191
252.50 1.206
252.00 1.222
251.50 1.240
251.00 1.257
250.50 1.272
250.00 1.284
##END=
