##TITLE= WL Accuracy at 546.1nm
##JCAMP-DX= 4.24
##DATA TYPE= UV/VIS SPECTRUM
##ORIGIN= 
##OWNER= Benson
##DATE= 14:34:03, 05/23/2025
##SAMPLE DESCRIPTION= 
##SPECTROMETER/DATA SYSTEM= Hitachi Model U-3900H Spectrophotometer;
Serial Number: 2089-010;
ROM Version: 2J25300 07;
##INSTRUMENT PARAMETERS= Scan Speed= 300 nm/min;
Delay= 0 s;
Cycle Time= 0 min;
Replicates= 1;
Auto Zero before each run= On;
Wavelength of Auto Zero before each run= 400.00 nm;
Slit Width= 2 nm;
PMT Voltage= Auto;
Lamp Change Mode= Auto;
Lamp Change Wavelength= 340.00 nm;
Baseline Correction= User 1(User One);
High Resolution= Off;
D2 Lamp= On;
WI Lamp= On;
R/S Reverse= Off;
##DELTAX= -0.50
##PATH_LENGTH= 10.0mm
##XLABEL= nm
##YLABEL= Abs
##XUNITS= NANOMETERS
##YUNITS= ABSORBANCE
##XFACTOR= 1.0
##YFACTOR= 1.0
##FIRSTX= 400.00
##LASTX= 250.00
##NPOINTS= 301
##XYDATA= (X++(Y..Y))
400.00 0.000
399.50 0.000
399.00 0.000
398.50 0.000
398.00 0.000
397.50 0.000
397.00 0.001
396.50 0.001
396.00 0.001
395.50 0.001
395.00 0.001
394.50 0.001
394.00 0.001
393.50 0.001
393.00 0.001
392.50 0.001
392.00 0.002
391.50 0.002
391.00 0.002
390.50 0.002
390.00 0.002
389.50 0.002
389.00 0.002
388.50 0.002
388.00 0.003
387.50 0.004
387.00 0.004
386.50 0.004
386.00 0.004
385.50 0.003
385.00 0.003
384.50 0.004
384.00 0.004
383.50 0.005
383.00 0.006
382.50 0.005
382.00 0.004
381.50 0.003
381.00 0.005
380.50 0.007
380.00 0.012
379.50 0.017
379.00 0.021
378.50 0.025
378.00 0.028
377.50 0.028
377.00 0.028
376.50 0.028
376.00 0.030
375.50 0.030
375.00 0.031
374.50 0.032
374.00 0.032
373.50 0.033
373.00 0.034
372.50 0.035
372.00 0.036
371.50 0.037
371.00 0.038
370.50 0.039
370.00 0.041
369.50 0.042
369.00 0.043
368.50 0.044
368.00 0.045
367.50 0.046
367.00 0.047
366.50 0.047
366.00 0.048
365.50 0.049
365.00 0.050
364.50 0.050
364.00 0.051
363.50 0.053
363.00 0.054
362.50 0.056
362.00 0.058
361.50 0.060
361.00 0.062
360.50 0.063
360.00 0.064
359.50 0.065
359.00 0.066
358.50 0.067
358.00 0.068
357.50 0.070
357.00 0.071
356.50 0.073
356.00 0.074
355.50 0.076
355.00 0.077
354.50 0.079
354.00 0.080
353.50 0.082
353.00 0.085
352.50 0.088
352.00 0.090
351.50 0.093
351.00 0.095
350.50 0.097
350.00 0.099
349.50 0.100
349.00 0.101
348.50 0.103
348.00 0.105
347.50 0.106
347.00 0.107
346.50 0.108
346.00 0.109
345.50 0.111
345.00 0.113
344.50 0.116
344.00 0.118
343.50 0.121
343.00 0.118
342.50 0.127
342.00 0.137
341.50 0.139
341.00 0.132
340.50 0.116
340.00 0.095
339.50 0.073
339.00 0.054
338.50 0.041
338.00 0.037
337.50 0.041
337.00 0.051
336.50 0.062
336.00 0.062
335.50 0.067
335.00 0.073
334.50 0.079
334.00 0.085
333.50 0.093
333.00 0.101
332.50 0.109
332.00 0.120
331.50 0.132
331.00 0.144
330.50 0.156
330.00 0.170
329.50 0.185
329.00 0.199
328.50 0.214
328.00 0.230
327.50 0.246
327.00 0.262
326.50 0.280
326.00 0.297
325.50 0.315
325.00 0.334
324.50 0.353
324.00 0.373
323.50 0.393
323.00 0.414
322.50 0.436
322.00 0.457
321.50 0.478
321.00 0.498
320.50 0.518
320.00 0.537
319.50 0.554
319.00 0.570
318.50 0.586
318.00 0.600
317.50 0.612
317.00 0.622
316.50 0.633
316.00 0.641
315.50 0.648
315.00 0.655
314.50 0.661
314.00 0.666
313.50 0.670
313.00 0.673
312.50 0.676
312.00 0.677
311.50 0.677
311.00 0.676
310.50 0.675
310.00 0.673
309.50 0.670
309.00 0.667
308.50 0.663
308.00 0.658
307.50 0.652
307.00 0.646
306.50 0.639
306.00 0.631
305.50 0.622
305.00 0.614
304.50 0.605
304.00 0.595
303.50 0.584
303.00 0.573
302.50 0.561
302.00 0.549
301.50 0.537
301.00 0.524
300.50 0.512
300.00 0.499
299.50 0.486
299.00 0.473
298.50 0.461
298.00 0.449
297.50 0.438
297.00 0.427
296.50 0.416
296.00 0.405
295.50 0.394
295.00 0.383
294.50 0.372
294.00 0.361
293.50 0.351
293.00 0.341
292.50 0.330
292.00 0.320
291.50 0.310
291.00 0.300
290.50 0.291
290.00 0.282
289.50 0.274
289.00 0.266
288.50 0.259
288.00 0.252
287.50 0.246
287.00 0.241
286.50 0.236
286.00 0.231
285.50 0.227
285.00 0.224
284.50 0.220
284.00 0.218
283.50 0.215
283.00 0.213
282.50 0.212
282.00 0.211
281.50 0.211
281.00 0.211
280.50 0.212
280.00 0.214
279.50 0.216
279.00 0.220
278.50 0.224
278.00 0.229
277.50 0.235
277.00 0.241
276.50 0.249
276.00 0.257
275.50 0.266
275.00 0.275
274.50 0.286
274.00 0.298
273.50 0.311
273.00 0.326
272.50 0.341
272.00 0.359
271.50 0.377
271.00 0.397
270.50 0.418
270.00 0.440
269.50 0.462
269.00 0.485
268.50 0.507
268.00 0.531
267.50 0.554
267.00 0.579
266.50 0.603
266.00 0.627
265.50 0.651
265.00 0.676
264.50 0.701
264.00 0.726
263.50 0.751
263.00 0.777
262.50 0.803
262.00 0.828
261.50 0.853
261.00 0.878
260.50 0.901
260.00 0.924
259.50 0.945
259.00 0.967
258.50 0.986
258.00 1.004
257.50 1.021
257.00 1.037
256.50 1.052
256.00 1.066
255.50 1.079
255.00 1.093
254.50 1.107
254.00 1.120
253.50 1.133
253.00 1.146
252.50 1.160
252.00 1.175
251.50 1.192
251.00 1.209
250.50 1.223
250.00 1.234
##END=
