##TITLE= WL Accuracy at 546.1nm
##JCAMP-DX= 4.24
##DATA TYPE= UV/VIS SPECTRUM
##ORIGIN= 
##OWNER= Benson
##DATE= 14:15:18, 05/23/2025
##SAMPLE DESCRIPTION= 
##SPECTROMETER/DATA SYSTEM= Hitachi Model U-3900H Spectrophotometer;
Serial Number: 2089-010;
ROM Version: 2J25300 07;
##INSTRUMENT PARAMETERS= Scan Speed= 300 nm/min;
Delay= 0 s;
Cycle Time= 0 min;
Replicates= 1;
Auto Zero before each run= On;
Wavelength of Auto Zero before each run= 400.00 nm;
Slit Width= 2 nm;
PMT Voltage= Auto;
Lamp Change Mode= Auto;
Lamp Change Wavelength= 340.00 nm;
Baseline Correction= User 1(User One);
High Resolution= Off;
D2 Lamp= On;
WI Lamp= On;
R/S Reverse= Off;
##DELTAX= -0.50
##PATH_LENGTH= 10.0mm
##XLABEL= nm
##YLABEL= Abs
##XUNITS= NANOMETERS
##YUNITS= ABSORBANCE
##XFACTOR= 1.0
##YFACTOR= 1.0
##FIRSTX= 400.00
##LASTX= 250.00
##NPOINTS= 301
##XYDATA= (X++(Y..Y))
400.00 0.000
399.50 0.000
399.00 0.000
398.50 0.000
398.00 0.000
397.50 0.000
397.00 0.000
396.50 0.001
396.00 0.001
395.50 0.001
395.00 0.001
394.50 0.000
394.00 0.000
393.50 0.000
393.00 0.001
392.50 0.001
392.00 0.002
391.50 0.002
391.00 0.002
390.50 0.002
390.00 0.002
389.50 0.002
389.00 0.002
388.50 0.002
388.00 0.003
387.50 0.003
387.00 0.003
386.50 0.003
386.00 0.003
385.50 0.003
385.00 0.003
384.50 0.003
384.00 0.004
383.50 0.004
383.00 0.005
382.50 0.004
382.00 0.003
381.50 0.002
381.00 0.004
380.50 0.007
380.00 0.012
379.50 0.017
379.00 0.021
378.50 0.025
378.00 0.027
377.50 0.027
377.00 0.027
376.50 0.027
376.00 0.029
375.50 0.030
375.00 0.030
374.50 0.031
374.00 0.032
373.50 0.032
373.00 0.033
372.50 0.034
372.00 0.035
371.50 0.036
371.00 0.037
370.50 0.039
370.00 0.040
369.50 0.041
369.00 0.042
368.50 0.043
368.00 0.044
367.50 0.045
367.00 0.045
366.50 0.046
366.00 0.047
365.50 0.048
365.00 0.048
364.50 0.049
364.00 0.050
363.50 0.051
363.00 0.053
362.50 0.055
362.00 0.056
361.50 0.058
361.00 0.060
360.50 0.062
360.00 0.063
359.50 0.064
359.00 0.065
358.50 0.066
358.00 0.067
357.50 0.068
357.00 0.069
356.50 0.071
356.00 0.072
355.50 0.074
355.00 0.076
354.50 0.077
354.00 0.079
353.50 0.081
353.00 0.083
352.50 0.086
352.00 0.089
351.50 0.091
351.00 0.094
350.50 0.095
350.00 0.097
349.50 0.098
349.00 0.099
348.50 0.100
348.00 0.102
347.50 0.103
347.00 0.105
346.50 0.106
346.00 0.107
345.50 0.108
345.00 0.110
344.50 0.112
344.00 0.115
343.50 0.118
343.00 0.115
342.50 0.124
342.00 0.133
341.50 0.136
341.00 0.128
340.50 0.112
340.00 0.090
339.50 0.067
339.00 0.048
338.50 0.035
338.00 0.031
337.50 0.034
337.00 0.044
336.50 0.054
336.00 0.053
335.50 0.058
335.00 0.063
334.50 0.069
334.00 0.075
333.50 0.081
333.00 0.088
332.50 0.096
332.00 0.105
331.50 0.115
331.00 0.126
330.50 0.138
330.00 0.151
329.50 0.164
329.00 0.177
328.50 0.191
328.00 0.205
327.50 0.220
327.00 0.235
326.50 0.251
326.00 0.267
325.50 0.284
325.00 0.301
324.50 0.319
324.00 0.337
323.50 0.356
323.00 0.374
322.50 0.394
322.00 0.414
321.50 0.433
321.00 0.452
320.50 0.471
320.00 0.489
319.50 0.505
319.00 0.520
318.50 0.535
318.00 0.548
317.50 0.559
317.00 0.570
316.50 0.579
316.00 0.587
315.50 0.594
315.00 0.600
314.50 0.606
314.00 0.610
313.50 0.614
313.00 0.617
312.50 0.619
312.00 0.621
311.50 0.622
311.00 0.622
310.50 0.621
310.00 0.620
309.50 0.618
309.00 0.615
308.50 0.611
308.00 0.607
307.50 0.602
307.00 0.597
306.50 0.591
306.00 0.585
305.50 0.578
305.00 0.571
304.50 0.564
304.00 0.556
303.50 0.547
303.00 0.538
302.50 0.528
302.00 0.518
301.50 0.508
301.00 0.498
300.50 0.487
300.00 0.477
299.50 0.466
299.00 0.456
298.50 0.446
298.00 0.436
297.50 0.427
297.00 0.417
296.50 0.408
296.00 0.399
295.50 0.389
295.00 0.380
294.50 0.371
294.00 0.362
293.50 0.353
293.00 0.344
292.50 0.335
292.00 0.326
291.50 0.317
291.00 0.309
290.50 0.301
290.00 0.293
289.50 0.285
289.00 0.278
288.50 0.271
288.00 0.265
287.50 0.259
287.00 0.254
286.50 0.249
286.00 0.245
285.50 0.241
285.00 0.238
284.50 0.234
284.00 0.231
283.50 0.228
283.00 0.225
282.50 0.223
282.00 0.222
281.50 0.220
281.00 0.220
280.50 0.220
280.00 0.221
279.50 0.223
279.00 0.225
278.50 0.228
278.00 0.231
277.50 0.236
277.00 0.241
276.50 0.247
276.00 0.254
275.50 0.261
275.00 0.270
274.50 0.279
274.00 0.290
273.50 0.301
273.00 0.313
272.50 0.327
272.00 0.343
271.50 0.359
271.00 0.376
270.50 0.395
270.00 0.415
269.50 0.435
269.00 0.456
268.50 0.477
268.00 0.499
267.50 0.521
267.00 0.543
266.50 0.565
266.00 0.587
265.50 0.608
265.00 0.631
264.50 0.654
264.00 0.677
263.50 0.700
263.00 0.724
262.50 0.747
262.00 0.770
261.50 0.793
261.00 0.816
260.50 0.838
260.00 0.858
259.50 0.878
259.00 0.897
258.50 0.915
258.00 0.931
257.50 0.947
257.00 0.962
256.50 0.975
256.00 0.989
255.50 1.001
255.00 1.014
254.50 1.026
254.00 1.038
253.50 1.050
253.00 1.061
252.50 1.073
252.00 1.086
251.50 1.100
251.00 1.114
250.50 1.126
250.00 1.135
##END=
