##TITLE= WL Accuracy at 546.1nm
##JCAMP-DX= 4.24
##DATA TYPE= UV/VIS SPECTRUM
##ORIGIN= 
##OWNER= Benson
##DATE= 14:09:58, 05/23/2025
##SAMPLE DESCRIPTION= 
##SPECTROMETER/DATA SYSTEM= Hitachi Model U-3900H Spectrophotometer;
Serial Number: 2089-010;
ROM Version: 2J25300 07;
##INSTRUMENT PARAMETERS= Scan Speed= 300 nm/min;
Delay= 0 s;
Cycle Time= 0 min;
Replicates= 1;
Auto Zero before each run= On;
Wavelength of Auto Zero before each run= 400.00 nm;
Slit Width= 2 nm;
PMT Voltage= Auto;
Lamp Change Mode= Auto;
Lamp Change Wavelength= 340.00 nm;
Baseline Correction= User 1(User One);
High Resolution= Off;
D2 Lamp= On;
WI Lamp= On;
R/S Reverse= Off;
##DELTAX= -0.50
##PATH_LENGTH= 10.0mm
##XLABEL= nm
##YLABEL= Abs
##XUNITS= NANOMETERS
##YUNITS= ABSORBANCE
##XFACTOR= 1.0
##YFACTOR= 1.0
##FIRSTX= 400.00
##LASTX= 250.00
##NPOINTS= 301
##XYDATA= (X++(Y..Y))
400.00 0.000
399.50 0.000
399.00 0.000
398.50 0.000
398.00 0.000
397.50 0.000
397.00 0.001
396.50 0.001
396.00 0.001
395.50 0.001
395.00 0.001
394.50 0.001
394.00 0.001
393.50 0.001
393.00 0.001
392.50 0.002
392.00 0.002
391.50 0.003
391.00 0.003
390.50 0.003
390.00 0.003
389.50 0.003
389.00 0.003
388.50 0.003
388.00 0.004
387.50 0.004
387.00 0.004
386.50 0.004
386.00 0.004
385.50 0.004
385.00 0.004
384.50 0.005
384.00 0.005
383.50 0.006
383.00 0.007
382.50 0.006
382.00 0.004
381.50 0.004
381.00 0.006
380.50 0.009
380.00 0.013
379.50 0.018
379.00 0.023
378.50 0.026
378.00 0.028
377.50 0.028
377.00 0.028
376.50 0.028
376.00 0.030
375.50 0.032
375.00 0.032
374.50 0.033
374.00 0.034
373.50 0.034
373.00 0.035
372.50 0.036
372.00 0.037
371.50 0.038
371.00 0.039
370.50 0.041
370.00 0.042
369.50 0.043
369.00 0.044
368.50 0.045
368.00 0.046
367.50 0.047
367.00 0.047
366.50 0.048
366.00 0.049
365.50 0.050
365.00 0.051
364.50 0.052
364.00 0.053
363.50 0.054
363.00 0.055
362.50 0.057
362.00 0.059
361.50 0.061
361.00 0.063
360.50 0.064
360.00 0.065
359.50 0.066
359.00 0.067
358.50 0.069
358.00 0.070
357.50 0.071
357.00 0.072
356.50 0.074
356.00 0.075
355.50 0.077
355.00 0.078
354.50 0.080
354.00 0.082
353.50 0.084
353.00 0.086
352.50 0.089
352.00 0.092
351.50 0.094
351.00 0.096
350.50 0.098
350.00 0.100
349.50 0.102
349.00 0.103
348.50 0.104
348.00 0.106
347.50 0.107
347.00 0.108
346.50 0.109
346.00 0.110
345.50 0.112
345.00 0.114
344.50 0.117
344.00 0.119
343.50 0.121
343.00 0.118
342.50 0.127
342.00 0.136
341.50 0.139
341.00 0.132
340.50 0.115
340.00 0.094
339.50 0.071
339.00 0.052
338.50 0.039
338.00 0.034
337.50 0.037
337.00 0.047
336.50 0.057
336.00 0.056
335.50 0.060
335.00 0.065
334.50 0.070
334.00 0.076
333.50 0.082
333.00 0.089
332.50 0.097
332.00 0.106
331.50 0.115
331.00 0.125
330.50 0.136
330.00 0.149
329.50 0.161
329.00 0.174
328.50 0.188
328.00 0.202
327.50 0.216
327.00 0.231
326.50 0.246
326.00 0.261
325.50 0.276
325.00 0.292
324.50 0.309
324.00 0.327
323.50 0.345
323.00 0.364
322.50 0.383
322.00 0.401
321.50 0.420
321.00 0.439
320.50 0.457
320.00 0.474
319.50 0.490
319.00 0.505
318.50 0.518
318.00 0.530
317.50 0.541
317.00 0.551
316.50 0.560
316.00 0.568
315.50 0.575
315.00 0.581
314.50 0.586
314.00 0.590
313.50 0.594
313.00 0.598
312.50 0.601
312.00 0.602
311.50 0.603
311.00 0.603
310.50 0.603
310.00 0.601
309.50 0.599
309.00 0.597
308.50 0.593
308.00 0.589
307.50 0.585
307.00 0.580
306.50 0.575
306.00 0.569
305.50 0.564
305.00 0.557
304.50 0.551
304.00 0.543
303.50 0.536
303.00 0.528
302.50 0.519
302.00 0.510
301.50 0.501
301.00 0.492
300.50 0.483
300.00 0.473
299.50 0.464
299.00 0.455
298.50 0.446
298.00 0.437
297.50 0.428
297.00 0.419
296.50 0.411
296.00 0.402
295.50 0.394
295.00 0.386
294.50 0.377
294.00 0.369
293.50 0.361
293.00 0.352
292.50 0.344
292.00 0.335
291.50 0.327
291.00 0.319
290.50 0.311
290.00 0.303
289.50 0.296
289.00 0.289
288.50 0.282
288.00 0.276
287.50 0.271
287.00 0.265
286.50 0.261
286.00 0.256
285.50 0.252
285.00 0.249
284.50 0.245
284.00 0.242
283.50 0.240
283.00 0.237
282.50 0.235
282.00 0.233
281.50 0.231
281.00 0.230
280.50 0.230
280.00 0.231
279.50 0.232
279.00 0.234
278.50 0.236
278.00 0.239
277.50 0.243
277.00 0.248
276.50 0.254
276.00 0.260
275.50 0.266
275.00 0.274
274.50 0.283
274.00 0.293
273.50 0.303
273.00 0.315
272.50 0.329
272.00 0.343
271.50 0.358
271.00 0.375
270.50 0.393
270.00 0.412
269.50 0.432
269.00 0.452
268.50 0.472
268.00 0.492
267.50 0.513
267.00 0.534
266.50 0.555
266.00 0.576
265.50 0.598
265.00 0.619
264.50 0.641
264.00 0.663
263.50 0.686
263.00 0.708
262.50 0.731
262.00 0.753
261.50 0.776
261.00 0.798
260.50 0.819
260.00 0.839
259.50 0.859
259.00 0.877
258.50 0.894
258.00 0.909
257.50 0.925
257.00 0.939
256.50 0.953
256.00 0.965
255.50 0.978
255.00 0.990
254.50 1.002
254.00 1.013
253.50 1.025
253.00 1.036
252.50 1.047
252.00 1.060
251.50 1.074
251.00 1.087
250.50 1.098
250.00 1.106
##END=
