##TITLE= WL Accuracy at 546.1nm
##JCAMP-DX= 4.24
##DATA TYPE= UV/VIS SPECTRUM
##ORIGIN= 
##OWNER= Benson
##DATE= 13:29:04, 06/17/2024
##SAMPLE DESCRIPTION= 
##SPECTROMETER/DATA SYSTEM= Hitachi Model U-3900H Spectrophotometer;
Serial Number: 2089-010;
ROM Version: 2J25300 07;
##INSTRUMENT PARAMETERS= Scan Speed= 300 nm/min;
Delay= 0 s;
Cycle Time= 0 min;
Replicates= 1;
Auto Zero before each run= Off;
Slit Width= 2 nm;
PMT Voltage= Auto;
Lamp Change Mode= Auto;
Lamp Change Wavelength= 340.00 nm;
Baseline Correction= User 1;
High Resolution= Off;
D2 Lamp= On;
WI Lamp= On;
R/S Reverse= Off;
##DELTAX= -0.50
##PATH_LENGTH= 10.0mm
##XLABEL= nm
##YLABEL= Abs
##XUNITS= NANOMETERS
##YUNITS= ABSORBANCE
##XFACTOR= 1.0
##YFACTOR= 1.0
##FIRSTX= 400.00
##LASTX= 250.00
##NPOINTS= 301
##XYDATA= (X++(Y..Y))
400.00 0.011
399.50 0.011
399.00 0.011
398.50 0.011
398.00 0.011
397.50 0.011
397.00 0.011
396.50 0.011
396.00 0.011
395.50 0.011
395.00 0.011
394.50 0.011
394.00 0.011
393.50 0.012
393.00 0.012
392.50 0.012
392.00 0.012
391.50 0.012
391.00 0.012
390.50 0.012
390.00 0.012
389.50 0.012
389.00 0.012
388.50 0.012
388.00 0.012
387.50 0.012
387.00 0.012
386.50 0.012
386.00 0.012
385.50 0.012
385.00 0.012
384.50 0.012
384.00 0.012
383.50 0.012
383.00 0.012
382.50 0.012
382.00 0.013
381.50 0.012
381.00 0.012
380.50 0.012
380.00 0.012
379.50 0.012
379.00 0.012
378.50 0.012
378.00 0.013
377.50 0.013
377.00 0.013
376.50 0.013
376.00 0.012
375.50 0.012
375.00 0.012
374.50 0.013
374.00 0.013
373.50 0.013
373.00 0.013
372.50 0.013
372.00 0.013
371.50 0.013
371.00 0.013
370.50 0.013
370.00 0.013
369.50 0.013
369.00 0.013
368.50 0.013
368.00 0.013
367.50 0.013
367.00 0.013
366.50 0.013
366.00 0.013
365.50 0.013
365.00 0.013
364.50 0.014
364.00 0.014
363.50 0.013
363.00 0.013
362.50 0.014
362.00 0.013
361.50 0.013
361.00 0.014
360.50 0.014
360.00 0.014
359.50 0.014
359.00 0.014
358.50 0.014
358.00 0.014
357.50 0.014
357.00 0.014
356.50 0.014
356.00 0.014
355.50 0.014
355.00 0.014
354.50 0.014
354.00 0.014
353.50 0.014
353.00 0.015
352.50 0.015
352.00 0.015
351.50 0.015
351.00 0.015
350.50 0.015
350.00 0.015
349.50 0.015
349.00 0.015
348.50 0.015
348.00 0.016
347.50 0.016
347.00 0.016
346.50 0.016
346.00 0.016
345.50 0.016
345.00 0.016
344.50 0.016
344.00 0.016
343.50 0.016
343.00 0.016
342.50 0.016
342.00 0.016
341.50 0.016
341.00 0.017
340.50 0.017
340.00 0.017
339.50 0.017
339.00 0.017
338.50 0.018
338.00 0.018
337.50 0.018
337.00 0.018
336.50 0.018
336.00 0.018
335.50 0.018
335.00 0.018
334.50 0.018
334.00 0.018
333.50 0.019
333.00 0.019
332.50 0.019
332.00 0.019
331.50 0.019
331.00 0.019
330.50 0.020
330.00 0.020
329.50 0.020
329.00 0.020
328.50 0.021
328.00 0.021
327.50 0.021
327.00 0.021
326.50 0.022
326.00 0.022
325.50 0.023
325.00 0.023
324.50 0.023
324.00 0.024
323.50 0.025
323.00 0.026
322.50 0.027
322.00 0.028
321.50 0.030
321.00 0.032
320.50 0.034
320.00 0.036
319.50 0.039
319.00 0.042
318.50 0.046
318.00 0.050
317.50 0.054
317.00 0.059
316.50 0.064
316.00 0.071
315.50 0.078
315.00 0.086
314.50 0.095
314.00 0.105
313.50 0.116
313.00 0.129
312.50 0.143
312.00 0.159
311.50 0.176
311.00 0.195
310.50 0.216
310.00 0.239
309.50 0.262
309.00 0.288
308.50 0.313
308.00 0.340
307.50 0.367
307.00 0.395
306.50 0.422
306.00 0.450
305.50 0.479
305.00 0.509
304.50 0.539
304.00 0.569
303.50 0.599
303.00 0.630
302.50 0.660
302.00 0.689
301.50 0.717
301.00 0.746
300.50 0.771
300.00 0.794
299.50 0.815
299.00 0.836
298.50 0.853
298.00 0.868
297.50 0.881
297.00 0.894
296.50 0.904
296.00 0.912
295.50 0.919
295.00 0.926
294.50 0.931
294.00 0.934
293.50 0.936
293.00 0.937
292.50 0.937
292.00 0.934
291.50 0.930
291.00 0.925
290.50 0.918
290.00 0.909
289.50 0.900
289.00 0.890
288.50 0.878
288.00 0.866
287.50 0.854
287.00 0.841
286.50 0.828
286.00 0.814
285.50 0.800
285.00 0.786
284.50 0.772
284.00 0.756
283.50 0.741
283.00 0.724
282.50 0.708
282.00 0.692
281.50 0.675
281.00 0.659
280.50 0.641
280.00 0.626
279.50 0.610
279.00 0.594
278.50 0.580
278.00 0.566
277.50 0.554
277.00 0.542
276.50 0.530
276.00 0.520
275.50 0.510
275.00 0.501
274.50 0.492
274.00 0.484
273.50 0.477
273.00 0.470
272.50 0.466
272.00 0.462
271.50 0.459
271.00 0.457
270.50 0.458
270.00 0.459
269.50 0.462
269.00 0.468
268.50 0.475
268.00 0.484
267.50 0.495
267.00 0.508
266.50 0.524
266.00 0.541
265.50 0.561
265.00 0.583
264.50 0.610
264.00 0.640
263.50 0.674
263.00 0.712
262.50 0.756
262.00 0.805
261.50 0.861
261.00 0.921
260.50 0.987
260.00 1.058
259.50 1.138
259.00 1.219
258.50 1.304
258.00 1.392
257.50 1.493
257.00 1.592
256.50 1.692
256.00 1.794
255.50 1.915
255.00 2.031
254.50 2.148
254.00 2.268
253.50 2.417
253.00 2.548
252.50 2.669
252.00 2.789
251.50 2.945
251.00 3.070
250.50 3.163
250.00 3.223
##END=
