##TITLE= WL Accuracy at 546.1nm
##JCAMP-DX= 4.24
##DATA TYPE= UV/VIS SPECTRUM
##ORIGIN= 
##OWNER= Benson
##DATE= 15:24:50, 06/17/2024
##SAMPLE DESCRIPTION= 
##SPECTROMETER/DATA SYSTEM= Hitachi Model U-3900H Spectrophotometer;
Serial Number: 2089-010;
ROM Version: 2J25300 07;
##INSTRUMENT PARAMETERS= Scan Speed= 300 nm/min;
Delay= 0 s;
Cycle Time= 0 min;
Replicates= 1;
Auto Zero before each run= Off;
Slit Width= 2 nm;
PMT Voltage= Auto;
Lamp Change Mode= Auto;
Lamp Change Wavelength= 340.00 nm;
Baseline Correction= User 1;
High Resolution= Off;
D2 Lamp= On;
WI Lamp= On;
R/S Reverse= Off;
##DELTAX= -0.50
##PATH_LENGTH= 10.0mm
##XLABEL= nm
##YLABEL= Abs
##XUNITS= NANOMETERS
##YUNITS= ABSORBANCE
##XFACTOR= 1.0
##YFACTOR= 1.0
##FIRSTX= 400.00
##LASTX= 250.00
##NPOINTS= 301
##XYDATA= (X++(Y..Y))
400.00 0.017
399.50 0.017
399.00 0.017
398.50 0.017
398.00 0.018
397.50 0.018
397.00 0.018
396.50 0.018
396.00 0.018
395.50 0.018
395.00 0.018
394.50 0.018
394.00 0.018
393.50 0.018
393.00 0.018
392.50 0.018
392.00 0.018
391.50 0.018
391.00 0.019
390.50 0.019
390.00 0.019
389.50 0.019
389.00 0.019
388.50 0.019
388.00 0.019
387.50 0.019
387.00 0.019
386.50 0.020
386.00 0.020
385.50 0.020
385.00 0.020
384.50 0.020
384.00 0.020
383.50 0.020
383.00 0.020
382.50 0.020
382.00 0.021
381.50 0.021
381.00 0.021
380.50 0.021
380.00 0.021
379.50 0.021
379.00 0.021
378.50 0.021
378.00 0.020
377.50 0.021
377.00 0.021
376.50 0.021
376.00 0.021
375.50 0.021
375.00 0.021
374.50 0.021
374.00 0.021
373.50 0.021
373.00 0.021
372.50 0.021
372.00 0.021
371.50 0.021
371.00 0.022
370.50 0.022
370.00 0.022
369.50 0.022
369.00 0.023
368.50 0.023
368.00 0.023
367.50 0.023
367.00 0.023
366.50 0.023
366.00 0.023
365.50 0.023
365.00 0.023
364.50 0.024
364.00 0.024
363.50 0.024
363.00 0.024
362.50 0.024
362.00 0.024
361.50 0.024
361.00 0.024
360.50 0.024
360.00 0.024
359.50 0.024
359.00 0.025
358.50 0.025
358.00 0.025
357.50 0.025
357.00 0.025
356.50 0.025
356.00 0.025
355.50 0.025
355.00 0.025
354.50 0.025
354.00 0.025
353.50 0.026
353.00 0.026
352.50 0.026
352.00 0.026
351.50 0.026
351.00 0.026
350.50 0.026
350.00 0.026
349.50 0.026
349.00 0.026
348.50 0.027
348.00 0.027
347.50 0.027
347.00 0.027
346.50 0.027
346.00 0.027
345.50 0.027
345.00 0.028
344.50 0.028
344.00 0.028
343.50 0.028
343.00 0.028
342.50 0.028
342.00 0.029
341.50 0.029
341.00 0.029
340.50 0.029
340.00 0.028
339.50 0.028
339.00 0.027
338.50 0.027
338.00 0.027
337.50 0.027
337.00 0.027
336.50 0.027
336.00 0.027
335.50 0.028
335.00 0.028
334.50 0.028
334.00 0.028
333.50 0.028
333.00 0.028
332.50 0.028
332.00 0.029
331.50 0.029
331.00 0.030
330.50 0.030
330.00 0.031
329.50 0.031
329.00 0.031
328.50 0.031
328.00 0.031
327.50 0.032
327.00 0.032
326.50 0.032
326.00 0.033
325.50 0.033
325.00 0.033
324.50 0.034
324.00 0.034
323.50 0.035
323.00 0.036
322.50 0.037
322.00 0.038
321.50 0.038
321.00 0.040
320.50 0.041
320.00 0.042
319.50 0.044
319.00 0.046
318.50 0.048
318.00 0.051
317.50 0.054
317.00 0.057
316.50 0.061
316.00 0.065
315.50 0.069
315.00 0.074
314.50 0.079
314.00 0.086
313.50 0.093
313.00 0.101
312.50 0.111
312.00 0.121
311.50 0.132
311.00 0.145
310.50 0.158
310.00 0.173
309.50 0.188
309.00 0.204
308.50 0.220
308.00 0.238
307.50 0.255
307.00 0.274
306.50 0.291
306.00 0.310
305.50 0.328
305.00 0.348
304.50 0.368
304.00 0.387
303.50 0.407
303.00 0.428
302.50 0.447
302.00 0.466
301.50 0.484
301.00 0.503
300.50 0.519
300.00 0.534
299.50 0.548
299.00 0.561
298.50 0.573
298.00 0.583
297.50 0.592
297.00 0.600
296.50 0.607
296.00 0.613
295.50 0.618
295.00 0.623
294.50 0.627
294.00 0.630
293.50 0.632
293.00 0.634
292.50 0.635
292.00 0.635
291.50 0.634
291.00 0.633
290.50 0.632
290.00 0.630
289.50 0.629
289.00 0.627
288.50 0.626
288.00 0.626
287.50 0.627
287.00 0.628
286.50 0.630
286.00 0.632
285.50 0.635
285.00 0.638
284.50 0.641
284.00 0.643
283.50 0.645
283.00 0.645
282.50 0.644
282.00 0.641
281.50 0.635
281.00 0.629
280.50 0.621
280.00 0.613
279.50 0.605
279.00 0.597
278.50 0.591
278.00 0.586
277.50 0.582
277.00 0.578
276.50 0.574
276.00 0.570
275.50 0.566
275.00 0.561
274.50 0.555
274.00 0.548
273.50 0.541
273.00 0.534
272.50 0.528
272.00 0.521
271.50 0.515
271.00 0.509
270.50 0.505
270.00 0.502
269.50 0.499
269.00 0.498
268.50 0.498
268.00 0.500
267.50 0.502
267.00 0.506
266.50 0.512
266.00 0.518
265.50 0.526
265.00 0.536
264.50 0.548
264.00 0.562
263.50 0.578
263.00 0.598
262.50 0.622
262.00 0.649
261.50 0.680
261.00 0.715
260.50 0.754
260.00 0.796
259.50 0.843
259.00 0.892
258.50 0.945
258.00 1.000
257.50 1.061
257.00 1.123
256.50 1.187
256.00 1.254
255.50 1.329
255.00 1.404
254.50 1.482
254.00 1.564
253.50 1.657
253.00 1.746
252.50 1.836
252.00 1.930
251.50 2.042
251.00 2.142
250.50 2.226
250.00 2.288
##END=
