##TITLE= WL Accuracy at 546.1nm
##JCAMP-DX= 4.24
##DATA TYPE= UV/VIS SPECTRUM
##ORIGIN= 
##OWNER= Benson
##DATE= 14:40:18, 06/17/2024
##SAMPLE DESCRIPTION= 
##SPECTROMETER/DATA SYSTEM= Hitachi Model U-3900H Spectrophotometer;
Serial Number: 2089-010;
ROM Version: 2J25300 07;
##INSTRUMENT PARAMETERS= Scan Speed= 300 nm/min;
Delay= 0 s;
Cycle Time= 0 min;
Replicates= 1;
Auto Zero before each run= Off;
Slit Width= 2 nm;
PMT Voltage= Auto;
Lamp Change Mode= Auto;
Lamp Change Wavelength= 340.00 nm;
Baseline Correction= User 1;
High Resolution= Off;
D2 Lamp= On;
WI Lamp= On;
R/S Reverse= Off;
##DELTAX= -0.50
##PATH_LENGTH= 10.0mm
##XLABEL= nm
##YLABEL= Abs
##XUNITS= NANOMETERS
##YUNITS= ABSORBANCE
##XFACTOR= 1.0
##YFACTOR= 1.0
##FIRSTX= 400.00
##LASTX= 250.00
##NPOINTS= 301
##XYDATA= (X++(Y..Y))
400.00 0.010
399.50 0.010
399.00 0.010
398.50 0.010
398.00 0.010
397.50 0.010
397.00 0.010
396.50 0.010
396.00 0.010
395.50 0.010
395.00 0.010
394.50 0.010
394.00 0.010
393.50 0.010
393.00 0.010
392.50 0.010
392.00 0.010
391.50 0.010
391.00 0.010
390.50 0.010
390.00 0.010
389.50 0.010
389.00 0.010
388.50 0.010
388.00 0.011
387.50 0.011
387.00 0.011
386.50 0.011
386.00 0.011
385.50 0.011
385.00 0.011
384.50 0.011
384.00 0.011
383.50 0.011
383.00 0.011
382.50 0.011
382.00 0.012
381.50 0.012
381.00 0.011
380.50 0.011
380.00 0.011
379.50 0.011
379.00 0.011
378.50 0.011
378.00 0.011
377.50 0.011
377.00 0.011
376.50 0.011
376.00 0.011
375.50 0.012
375.00 0.012
374.50 0.012
374.00 0.012
373.50 0.012
373.00 0.012
372.50 0.012
372.00 0.012
371.50 0.012
371.00 0.012
370.50 0.013
370.00 0.013
369.50 0.013
369.00 0.013
368.50 0.013
368.00 0.013
367.50 0.013
367.00 0.013
366.50 0.013
366.00 0.013
365.50 0.014
365.00 0.014
364.50 0.014
364.00 0.014
363.50 0.014
363.00 0.014
362.50 0.014
362.00 0.014
361.50 0.014
361.00 0.014
360.50 0.014
360.00 0.015
359.50 0.015
359.00 0.015
358.50 0.015
358.00 0.015
357.50 0.015
357.00 0.015
356.50 0.015
356.00 0.015
355.50 0.016
355.00 0.016
354.50 0.016
354.00 0.016
353.50 0.016
353.00 0.016
352.50 0.016
352.00 0.016
351.50 0.016
351.00 0.016
350.50 0.017
350.00 0.017
349.50 0.017
349.00 0.017
348.50 0.017
348.00 0.017
347.50 0.018
347.00 0.018
346.50 0.018
346.00 0.018
345.50 0.018
345.00 0.018
344.50 0.018
344.00 0.018
343.50 0.018
343.00 0.019
342.50 0.019
342.00 0.019
341.50 0.019
341.00 0.019
340.50 0.019
340.00 0.019
339.50 0.018
339.00 0.018
338.50 0.018
338.00 0.018
337.50 0.018
337.00 0.018
336.50 0.018
336.00 0.018
335.50 0.018
335.00 0.018
334.50 0.018
334.00 0.018
333.50 0.019
333.00 0.019
332.50 0.019
332.00 0.020
331.50 0.020
331.00 0.020
330.50 0.020
330.00 0.021
329.50 0.021
329.00 0.021
328.50 0.021
328.00 0.021
327.50 0.022
327.00 0.022
326.50 0.022
326.00 0.023
325.50 0.023
325.00 0.023
324.50 0.024
324.00 0.024
323.50 0.025
323.00 0.026
322.50 0.027
322.00 0.028
321.50 0.029
321.00 0.031
320.50 0.032
320.00 0.034
319.50 0.036
319.00 0.039
318.50 0.042
318.00 0.045
317.50 0.048
317.00 0.052
316.50 0.057
316.00 0.062
315.50 0.067
315.00 0.074
314.50 0.081
314.00 0.089
313.50 0.098
313.00 0.108
312.50 0.119
312.00 0.132
311.50 0.146
311.00 0.161
310.50 0.177
310.00 0.196
309.50 0.214
309.00 0.235
308.50 0.255
308.00 0.277
307.50 0.298
307.00 0.321
306.50 0.343
306.00 0.366
305.50 0.389
305.00 0.413
304.50 0.437
304.00 0.462
303.50 0.486
303.00 0.511
302.50 0.535
302.00 0.559
301.50 0.581
301.00 0.604
300.50 0.625
300.00 0.644
299.50 0.661
299.00 0.677
298.50 0.692
298.00 0.704
297.50 0.714
297.00 0.724
296.50 0.733
296.00 0.740
295.50 0.746
295.00 0.752
294.50 0.756
294.00 0.759
293.50 0.761
293.00 0.762
292.50 0.762
292.00 0.762
291.50 0.760
291.00 0.757
290.50 0.754
290.00 0.749
289.50 0.744
289.00 0.739
288.50 0.733
288.00 0.728
287.50 0.723
287.00 0.718
286.50 0.713
286.00 0.709
285.50 0.704
285.00 0.700
284.50 0.695
284.00 0.690
283.50 0.684
283.00 0.677
282.50 0.669
282.00 0.660
281.50 0.650
281.00 0.639
280.50 0.627
280.00 0.615
279.50 0.604
279.00 0.594
278.50 0.584
278.00 0.575
277.50 0.567
277.00 0.559
276.50 0.552
276.00 0.546
275.50 0.538
275.00 0.531
274.50 0.524
274.00 0.518
273.50 0.511
273.00 0.504
272.50 0.498
272.00 0.493
271.50 0.488
271.00 0.484
270.50 0.482
270.00 0.480
269.50 0.480
269.00 0.482
268.50 0.486
268.00 0.491
267.50 0.497
267.00 0.504
266.50 0.515
266.00 0.526
265.50 0.539
265.00 0.554
264.50 0.573
264.00 0.594
263.50 0.618
263.00 0.647
262.50 0.680
262.00 0.716
261.50 0.758
261.00 0.804
260.50 0.856
260.00 0.911
259.50 0.973
259.00 1.036
258.50 1.104
258.00 1.174
257.50 1.253
257.00 1.332
256.50 1.412
256.00 1.495
255.50 1.591
255.00 1.686
254.50 1.782
254.00 1.882
253.50 2.000
253.00 2.109
252.50 2.217
252.00 2.328
251.50 2.465
251.00 2.583
250.50 2.679
250.00 2.750
##END=
