##TITLE= WL Accuracy at 546.1nm
##JCAMP-DX= 4.24
##DATA TYPE= UV/VIS SPECTRUM
##ORIGIN= 
##OWNER= Benson
##DATE= 12:36:41, 06/18/2024
##SAMPLE DESCRIPTION= 
##SPECTROMETER/DATA SYSTEM= Hitachi Model U-3900H Spectrophotometer;
Serial Number: 2089-010;
ROM Version: 2J25300 07;
##INSTRUMENT PARAMETERS= Scan Speed= 300 nm/min;
Delay= 0 s;
Cycle Time= 0 min;
Replicates= 1;
Auto Zero before each run= Off;
Slit Width= 2 nm;
PMT Voltage= Auto;
Lamp Change Mode= Auto;
Lamp Change Wavelength= 340.00 nm;
Baseline Correction= User 1;
High Resolution= Off;
D2 Lamp= On;
WI Lamp= On;
R/S Reverse= Off;
##DELTAX= -0.50
##PATH_LENGTH= 10.0mm
##XLABEL= nm
##YLABEL= Abs
##XUNITS= NANOMETERS
##YUNITS= ABSORBANCE
##XFACTOR= 1.0
##YFACTOR= 1.0
##FIRSTX= 400.00
##LASTX= 250.00
##NPOINTS= 301
##XYDATA= (X++(Y..Y))
400.00 0.023
399.50 0.023
399.00 0.023
398.50 0.023
398.00 0.023
397.50 0.023
397.00 0.023
396.50 0.023
396.00 0.023
395.50 0.023
395.00 0.023
394.50 0.023
394.00 0.024
393.50 0.024
393.00 0.024
392.50 0.024
392.00 0.024
391.50 0.024
391.00 0.024
390.50 0.024
390.00 0.024
389.50 0.024
389.00 0.024
388.50 0.024
388.00 0.024
387.50 0.024
387.00 0.025
386.50 0.025
386.00 0.025
385.50 0.025
385.00 0.025
384.50 0.025
384.00 0.025
383.50 0.025
383.00 0.025
382.50 0.025
382.00 0.025
381.50 0.026
381.00 0.026
380.50 0.026
380.00 0.026
379.50 0.027
379.00 0.027
378.50 0.027
378.00 0.027
377.50 0.027
377.00 0.027
376.50 0.027
376.00 0.027
375.50 0.027
375.00 0.028
374.50 0.028
374.00 0.028
373.50 0.028
373.00 0.028
372.50 0.028
372.00 0.028
371.50 0.028
371.00 0.028
370.50 0.028
370.00 0.028
369.50 0.028
369.00 0.028
368.50 0.029
368.00 0.029
367.50 0.029
367.00 0.029
366.50 0.029
366.00 0.029
365.50 0.029
365.00 0.029
364.50 0.029
364.00 0.030
363.50 0.030
363.00 0.030
362.50 0.030
362.00 0.030
361.50 0.030
361.00 0.030
360.50 0.030
360.00 0.030
359.50 0.031
359.00 0.031
358.50 0.031
358.00 0.031
357.50 0.032
357.00 0.032
356.50 0.032
356.00 0.032
355.50 0.032
355.00 0.032
354.50 0.032
354.00 0.032
353.50 0.032
353.00 0.033
352.50 0.033
352.00 0.033
351.50 0.033
351.00 0.034
350.50 0.034
350.00 0.034
349.50 0.034
349.00 0.034
348.50 0.035
348.00 0.035
347.50 0.035
347.00 0.035
346.50 0.035
346.00 0.035
345.50 0.035
345.00 0.035
344.50 0.036
344.00 0.036
343.50 0.036
343.00 0.036
342.50 0.037
342.00 0.037
341.50 0.037
341.00 0.038
340.50 0.038
340.00 0.038
339.50 0.039
339.00 0.039
338.50 0.039
338.00 0.039
337.50 0.039
337.00 0.040
336.50 0.040
336.00 0.040
335.50 0.040
335.00 0.041
334.50 0.041
334.00 0.041
333.50 0.041
333.00 0.041
332.50 0.042
332.00 0.042
331.50 0.042
331.00 0.042
330.50 0.043
330.00 0.043
329.50 0.043
329.00 0.043
328.50 0.043
328.00 0.044
327.50 0.044
327.00 0.044
326.50 0.044
326.00 0.044
325.50 0.045
325.00 0.045
324.50 0.045
324.00 0.045
323.50 0.046
323.00 0.046
322.50 0.046
322.00 0.047
321.50 0.047
321.00 0.047
320.50 0.048
320.00 0.048
319.50 0.048
319.00 0.049
318.50 0.049
318.00 0.049
317.50 0.050
317.00 0.050
316.50 0.050
316.00 0.051
315.50 0.051
315.00 0.051
314.50 0.052
314.00 0.052
313.50 0.053
313.00 0.053
312.50 0.054
312.00 0.055
311.50 0.055
311.00 0.056
310.50 0.057
310.00 0.058
309.50 0.059
309.00 0.059
308.50 0.060
308.00 0.061
307.50 0.062
307.00 0.063
306.50 0.064
306.00 0.065
305.50 0.066
305.00 0.067
304.50 0.069
304.00 0.070
303.50 0.071
303.00 0.073
302.50 0.074
302.00 0.076
301.50 0.078
301.00 0.080
300.50 0.082
300.00 0.084
299.50 0.086
299.00 0.088
298.50 0.090
298.00 0.093
297.50 0.095
297.00 0.097
296.50 0.100
296.00 0.103
295.50 0.105
295.00 0.109
294.50 0.112
294.00 0.117
293.50 0.121
293.00 0.126
292.50 0.132
292.00 0.139
291.50 0.146
291.00 0.155
290.50 0.166
290.00 0.180
289.50 0.195
289.00 0.212
288.50 0.231
288.00 0.254
287.50 0.278
287.00 0.306
286.50 0.336
286.00 0.368
285.50 0.402
285.00 0.439
284.50 0.476
284.00 0.512
283.50 0.547
283.00 0.581
282.50 0.609
282.00 0.633
281.50 0.651
281.00 0.667
280.50 0.679
280.00 0.688
279.50 0.697
279.00 0.708
278.50 0.719
278.00 0.731
277.50 0.744
277.00 0.757
276.50 0.768
276.00 0.778
275.50 0.787
275.00 0.792
274.50 0.794
274.00 0.793
273.50 0.791
273.00 0.785
272.50 0.777
272.00 0.769
271.50 0.760
271.00 0.749
270.50 0.739
270.00 0.728
269.50 0.718
269.00 0.707
268.50 0.696
268.00 0.686
267.50 0.675
267.00 0.665
266.50 0.653
266.00 0.642
265.50 0.630
265.00 0.618
264.50 0.606
264.00 0.593
263.50 0.581
263.00 0.569
262.50 0.556
262.00 0.545
261.50 0.534
261.00 0.524
260.50 0.513
260.00 0.504
259.50 0.494
259.00 0.485
258.50 0.477
258.00 0.470
257.50 0.463
257.00 0.457
256.50 0.451
256.00 0.446
255.50 0.441
255.00 0.437
254.50 0.434
254.00 0.431
253.50 0.428
253.00 0.426
252.50 0.424
252.00 0.423
251.50 0.423
251.00 0.423
250.50 0.423
250.00 0.424
##END=
