##TITLE= WL Accuracy at 546.1nm
##JCAMP-DX= 4.24
##DATA TYPE= UV/VIS SPECTRUM
##ORIGIN= 
##OWNER= Benson
##DATE= 16:02:56, 06/17/2024
##SAMPLE DESCRIPTION= 
##SPECTROMETER/DATA SYSTEM= Hitachi Model U-3900H Spectrophotometer;
Serial Number: 2089-010;
ROM Version: 2J25300 07;
##INSTRUMENT PARAMETERS= Scan Speed= 300 nm/min;
Delay= 0 s;
Cycle Time= 0 min;
Replicates= 1;
Auto Zero before each run= Off;
Slit Width= 2 nm;
PMT Voltage= Auto;
Lamp Change Mode= Auto;
Lamp Change Wavelength= 340.00 nm;
Baseline Correction= User 1;
High Resolution= Off;
D2 Lamp= On;
WI Lamp= On;
R/S Reverse= Off;
##DELTAX= -0.50
##PATH_LENGTH= 10.0mm
##XLABEL= nm
##YLABEL= Abs
##XUNITS= NANOMETERS
##YUNITS= ABSORBANCE
##XFACTOR= 1.0
##YFACTOR= 1.0
##FIRSTX= 400.00
##LASTX= 250.00
##NPOINTS= 301
##XYDATA= (X++(Y..Y))
400.00 0.028
399.50 0.028
399.00 0.028
398.50 0.028
398.00 0.028
397.50 0.028
397.00 0.028
396.50 0.028
396.00 0.029
395.50 0.029
395.00 0.029
394.50 0.029
394.00 0.029
393.50 0.029
393.00 0.029
392.50 0.029
392.00 0.029
391.50 0.029
391.00 0.029
390.50 0.030
390.00 0.030
389.50 0.030
389.00 0.030
388.50 0.030
388.00 0.030
387.50 0.030
387.00 0.030
386.50 0.030
386.00 0.030
385.50 0.030
385.00 0.030
384.50 0.030
384.00 0.030
383.50 0.030
383.00 0.030
382.50 0.031
382.00 0.031
381.50 0.031
381.00 0.031
380.50 0.031
380.00 0.031
379.50 0.031
379.00 0.031
378.50 0.031
378.00 0.031
377.50 0.031
377.00 0.031
376.50 0.031
376.00 0.031
375.50 0.031
375.00 0.031
374.50 0.031
374.00 0.032
373.50 0.032
373.00 0.032
372.50 0.032
372.00 0.032
371.50 0.032
371.00 0.032
370.50 0.033
370.00 0.033
369.50 0.033
369.00 0.033
368.50 0.033
368.00 0.033
367.50 0.033
367.00 0.033
366.50 0.033
366.00 0.033
365.50 0.034
365.00 0.034
364.50 0.034
364.00 0.034
363.50 0.034
363.00 0.034
362.50 0.034
362.00 0.035
361.50 0.035
361.00 0.035
360.50 0.035
360.00 0.035
359.50 0.035
359.00 0.035
358.50 0.035
358.00 0.035
357.50 0.036
357.00 0.036
356.50 0.036
356.00 0.036
355.50 0.036
355.00 0.036
354.50 0.036
354.00 0.036
353.50 0.037
353.00 0.037
352.50 0.037
352.00 0.037
351.50 0.037
351.00 0.037
350.50 0.038
350.00 0.038
349.50 0.038
349.00 0.038
348.50 0.038
348.00 0.038
347.50 0.038
347.00 0.038
346.50 0.039
346.00 0.039
345.50 0.039
345.00 0.039
344.50 0.039
344.00 0.039
343.50 0.039
343.00 0.040
342.50 0.040
342.00 0.040
341.50 0.040
341.00 0.040
340.50 0.041
340.00 0.041
339.50 0.042
339.00 0.042
338.50 0.042
338.00 0.042
337.50 0.042
337.00 0.042
336.50 0.042
336.00 0.043
335.50 0.043
335.00 0.043
334.50 0.044
334.00 0.044
333.50 0.044
333.00 0.044
332.50 0.044
332.00 0.044
331.50 0.045
331.00 0.045
330.50 0.046
330.00 0.046
329.50 0.046
329.00 0.046
328.50 0.047
328.00 0.047
327.50 0.047
327.00 0.048
326.50 0.048
326.00 0.048
325.50 0.049
325.00 0.049
324.50 0.049
324.00 0.050
323.50 0.051
323.00 0.052
322.50 0.053
322.00 0.053
321.50 0.054
321.00 0.054
320.50 0.055
320.00 0.057
319.50 0.058
319.00 0.060
318.50 0.062
318.00 0.065
317.50 0.067
317.00 0.069
316.50 0.072
316.00 0.075
315.50 0.079
315.00 0.082
314.50 0.086
314.00 0.091
313.50 0.096
313.00 0.102
312.50 0.109
312.00 0.117
311.50 0.126
311.00 0.135
310.50 0.145
310.00 0.156
309.50 0.167
309.00 0.179
308.50 0.191
308.00 0.204
307.50 0.217
307.00 0.231
306.50 0.244
306.00 0.258
305.50 0.272
305.00 0.286
304.50 0.301
304.00 0.315
303.50 0.330
303.00 0.345
302.50 0.360
302.00 0.374
301.50 0.388
301.00 0.402
300.50 0.414
300.00 0.425
299.50 0.435
299.00 0.445
298.50 0.454
298.00 0.462
297.50 0.469
297.00 0.475
296.50 0.481
296.00 0.485
295.50 0.490
295.00 0.494
294.50 0.497
294.00 0.500
293.50 0.502
293.00 0.504
292.50 0.506
292.00 0.508
291.50 0.509
291.00 0.510
290.50 0.511
290.00 0.513
289.50 0.516
289.00 0.519
288.50 0.523
288.00 0.529
287.50 0.535
287.00 0.543
286.50 0.553
286.00 0.563
285.50 0.574
285.00 0.586
284.50 0.597
284.00 0.608
283.50 0.619
283.00 0.627
282.50 0.633
282.00 0.636
281.50 0.637
281.00 0.635
280.50 0.632
280.00 0.628
279.50 0.624
279.00 0.621
278.50 0.619
278.00 0.618
277.50 0.618
277.00 0.618
276.50 0.618
276.00 0.618
275.50 0.616
275.00 0.614
274.50 0.609
274.00 0.604
273.50 0.597
273.00 0.590
272.50 0.583
272.00 0.575
271.50 0.568
271.00 0.561
270.50 0.554
270.00 0.549
269.50 0.543
269.00 0.540
268.50 0.537
268.00 0.535
267.50 0.533
267.00 0.533
266.50 0.533
266.00 0.535
265.50 0.537
265.00 0.540
264.50 0.546
264.00 0.553
263.50 0.562
263.00 0.573
262.50 0.588
262.00 0.604
261.50 0.623
261.00 0.646
260.50 0.673
260.00 0.701
259.50 0.733
259.00 0.767
258.50 0.805
258.00 0.844
257.50 0.886
257.00 0.930
256.50 0.976
256.00 1.024
255.50 1.077
255.00 1.132
254.50 1.190
254.00 1.250
253.50 1.317
253.00 1.382
252.50 1.449
252.00 1.521
251.50 1.603
251.00 1.677
250.50 1.741
250.00 1.788
##END=
