##TITLE= WL Accuracy at 546.1nm
##JCAMP-DX= 4.24
##DATA TYPE= UV/VIS SPECTRUM
##ORIGIN= 
##OWNER= Benson
##DATE= 12:31:51, 06/18/2024
##SAMPLE DESCRIPTION= 
##SPECTROMETER/DATA SYSTEM= Hitachi Model U-3900H Spectrophotometer;
Serial Number: 2089-010;
ROM Version: 2J25300 07;
##INSTRUMENT PARAMETERS= Scan Speed= 300 nm/min;
Delay= 0 s;
Cycle Time= 0 min;
Replicates= 1;
Auto Zero before each run= Off;
Slit Width= 2 nm;
PMT Voltage= Auto;
Lamp Change Mode= Auto;
Lamp Change Wavelength= 340.00 nm;
Baseline Correction= User 1;
High Resolution= Off;
D2 Lamp= On;
WI Lamp= On;
R/S Reverse= Off;
##DELTAX= -0.50
##PATH_LENGTH= 10.0mm
##XLABEL= nm
##YLABEL= Abs
##XUNITS= NANOMETERS
##YUNITS= ABSORBANCE
##XFACTOR= 1.0
##YFACTOR= 1.0
##FIRSTX= 400.00
##LASTX= 250.00
##NPOINTS= 301
##XYDATA= (X++(Y..Y))
400.00 0.016
399.50 0.016
399.00 0.016
398.50 0.016
398.00 0.016
397.50 0.016
397.00 0.016
396.50 0.016
396.00 0.016
395.50 0.016
395.00 0.016
394.50 0.016
394.00 0.016
393.50 0.016
393.00 0.017
392.50 0.017
392.00 0.017
391.50 0.017
391.00 0.017
390.50 0.017
390.00 0.017
389.50 0.017
389.00 0.017
388.50 0.017
388.00 0.017
387.50 0.017
387.00 0.017
386.50 0.017
386.00 0.017
385.50 0.017
385.00 0.017
384.50 0.017
384.00 0.018
383.50 0.018
383.00 0.018
382.50 0.018
382.00 0.018
381.50 0.018
381.00 0.018
380.50 0.018
380.00 0.018
379.50 0.018
379.00 0.018
378.50 0.018
378.00 0.017
377.50 0.017
377.00 0.018
376.50 0.018
376.00 0.018
375.50 0.018
375.00 0.018
374.50 0.018
374.00 0.019
373.50 0.019
373.00 0.019
372.50 0.019
372.00 0.019
371.50 0.019
371.00 0.019
370.50 0.019
370.00 0.019
369.50 0.019
369.00 0.019
368.50 0.020
368.00 0.020
367.50 0.020
367.00 0.020
366.50 0.020
366.00 0.020
365.50 0.020
365.00 0.020
364.50 0.020
364.00 0.020
363.50 0.021
363.00 0.021
362.50 0.021
362.00 0.021
361.50 0.021
361.00 0.021
360.50 0.021
360.00 0.021
359.50 0.021
359.00 0.022
358.50 0.022
358.00 0.022
357.50 0.022
357.00 0.022
356.50 0.022
356.00 0.022
355.50 0.022
355.00 0.022
354.50 0.022
354.00 0.023
353.50 0.023
353.00 0.023
352.50 0.023
352.00 0.023
351.50 0.024
351.00 0.024
350.50 0.024
350.00 0.024
349.50 0.024
349.00 0.024
348.50 0.024
348.00 0.024
347.50 0.024
347.00 0.024
346.50 0.024
346.00 0.024
345.50 0.024
345.00 0.024
344.50 0.025
344.00 0.025
343.50 0.025
343.00 0.025
342.50 0.026
342.00 0.026
341.50 0.026
341.00 0.026
340.50 0.027
340.00 0.028
339.50 0.028
339.00 0.029
338.50 0.029
338.00 0.030
337.50 0.030
337.00 0.030
336.50 0.030
336.00 0.030
335.50 0.030
335.00 0.030
334.50 0.030
334.00 0.030
333.50 0.030
333.00 0.030
332.50 0.031
332.00 0.031
331.50 0.031
331.00 0.032
330.50 0.032
330.00 0.032
329.50 0.032
329.00 0.032
328.50 0.033
328.00 0.033
327.50 0.033
327.00 0.034
326.50 0.034
326.00 0.034
325.50 0.034
325.00 0.034
324.50 0.035
324.00 0.035
323.50 0.035
323.00 0.036
322.50 0.036
322.00 0.037
321.50 0.037
321.00 0.038
320.50 0.038
320.00 0.039
319.50 0.039
319.00 0.040
318.50 0.040
318.00 0.041
317.50 0.042
317.00 0.043
316.50 0.044
316.00 0.045
315.50 0.046
315.00 0.047
314.50 0.049
314.00 0.050
313.50 0.052
313.00 0.054
312.50 0.056
312.00 0.059
311.50 0.062
311.00 0.065
310.50 0.068
310.00 0.071
309.50 0.075
309.00 0.079
308.50 0.083
308.00 0.087
307.50 0.091
307.00 0.095
306.50 0.099
306.00 0.104
305.50 0.108
305.00 0.112
304.50 0.117
304.00 0.121
303.50 0.126
303.00 0.131
302.50 0.135
302.00 0.140
301.50 0.144
301.00 0.149
300.50 0.153
300.00 0.157
299.50 0.160
299.00 0.164
298.50 0.167
298.00 0.169
297.50 0.172
297.00 0.174
296.50 0.176
296.00 0.179
295.50 0.181
295.00 0.183
294.50 0.185
294.00 0.187
293.50 0.189
293.00 0.192
292.50 0.194
292.00 0.198
291.50 0.202
291.00 0.206
290.50 0.213
290.00 0.221
289.50 0.230
289.00 0.241
288.50 0.253
288.00 0.269
287.50 0.286
287.00 0.305
286.50 0.327
286.00 0.351
285.50 0.376
285.00 0.403
284.50 0.430
284.00 0.456
283.50 0.481
283.00 0.505
282.50 0.525
282.00 0.540
281.50 0.551
281.00 0.559
280.50 0.564
280.00 0.567
279.50 0.570
279.00 0.575
278.50 0.580
278.00 0.586
277.50 0.593
277.00 0.600
276.50 0.606
276.00 0.612
275.50 0.615
275.00 0.617
274.50 0.615
274.00 0.612
273.50 0.606
273.00 0.599
272.50 0.590
272.00 0.580
271.50 0.570
271.00 0.560
270.50 0.549
270.00 0.539
269.50 0.529
269.00 0.520
268.50 0.511
268.00 0.502
267.50 0.494
267.00 0.486
266.50 0.477
266.00 0.470
265.50 0.462
265.00 0.454
264.50 0.447
264.00 0.440
263.50 0.433
263.00 0.428
262.50 0.424
262.00 0.421
261.50 0.419
261.00 0.419
260.50 0.420
260.00 0.422
259.50 0.425
259.00 0.429
258.50 0.435
258.00 0.442
257.50 0.450
257.00 0.459
256.50 0.470
256.00 0.481
255.50 0.494
255.00 0.508
254.50 0.524
254.00 0.541
253.50 0.559
253.00 0.577
252.50 0.597
252.00 0.620
251.50 0.645
251.00 0.668
250.50 0.688
250.00 0.703
##END=
