##TITLE= WL Accuracy at 546.1nm
##JCAMP-DX= 4.24
##DATA TYPE= UV/VIS SPECTRUM
##ORIGIN= 
##OWNER= Benson
##DATE= 14:26:14, 06/17/2024
##SAMPLE DESCRIPTION= 
##SPECTROMETER/DATA SYSTEM= Hitachi Model U-3900H Spectrophotometer;
Serial Number: 2089-010;
ROM Version: 2J25300 07;
##INSTRUMENT PARAMETERS= Scan Speed= 300 nm/min;
Delay= 0 s;
Cycle Time= 0 min;
Replicates= 1;
Auto Zero before each run= Off;
Slit Width= 2 nm;
PMT Voltage= Auto;
Lamp Change Mode= Auto;
Lamp Change Wavelength= 340.00 nm;
Baseline Correction= User 1;
High Resolution= Off;
D2 Lamp= On;
WI Lamp= On;
R/S Reverse= Off;
##DELTAX= -0.50
##PATH_LENGTH= 10.0mm
##XLABEL= nm
##YLABEL= Abs
##XUNITS= NANOMETERS
##YUNITS= ABSORBANCE
##XFACTOR= 1.0
##YFACTOR= 1.0
##FIRSTX= 400.00
##LASTX= 250.00
##NPOINTS= 301
##XYDATA= (X++(Y..Y))
400.00 0.005
399.50 0.005
399.00 0.005
398.50 0.005
398.00 0.005
397.50 0.005
397.00 0.005
396.50 0.005
396.00 0.005
395.50 0.005
395.00 0.005
394.50 0.005
394.00 0.005
393.50 0.005
393.00 0.005
392.50 0.005
392.00 0.005
391.50 0.006
391.00 0.006
390.50 0.006
390.00 0.006
389.50 0.006
389.00 0.006
388.50 0.006
388.00 0.006
387.50 0.006
387.00 0.006
386.50 0.006
386.00 0.006
385.50 0.006
385.00 0.006
384.50 0.006
384.00 0.006
383.50 0.006
383.00 0.006
382.50 0.007
382.00 0.007
381.50 0.007
381.00 0.007
380.50 0.007
380.00 0.007
379.50 0.007
379.00 0.007
378.50 0.007
378.00 0.007
377.50 0.007
377.00 0.007
376.50 0.007
376.00 0.007
375.50 0.007
375.00 0.007
374.50 0.007
374.00 0.007
373.50 0.007
373.00 0.007
372.50 0.008
372.00 0.008
371.50 0.008
371.00 0.008
370.50 0.008
370.00 0.008
369.50 0.008
369.00 0.008
368.50 0.008
368.00 0.008
367.50 0.008
367.00 0.008
366.50 0.009
366.00 0.009
365.50 0.009
365.00 0.009
364.50 0.009
364.00 0.009
363.50 0.009
363.00 0.009
362.50 0.009
362.00 0.009
361.50 0.009
361.00 0.009
360.50 0.009
360.00 0.009
359.50 0.009
359.00 0.010
358.50 0.010
358.00 0.010
357.50 0.010
357.00 0.010
356.50 0.010
356.00 0.010
355.50 0.010
355.00 0.010
354.50 0.010
354.00 0.010
353.50 0.010
353.00 0.010
352.50 0.010
352.00 0.011
351.50 0.011
351.00 0.011
350.50 0.011
350.00 0.011
349.50 0.011
349.00 0.011
348.50 0.011
348.00 0.012
347.50 0.012
347.00 0.012
346.50 0.012
346.00 0.012
345.50 0.012
345.00 0.012
344.50 0.012
344.00 0.012
343.50 0.012
343.00 0.012
342.50 0.012
342.00 0.013
341.50 0.013
341.00 0.012
340.50 0.013
340.00 0.013
339.50 0.013
339.00 0.013
338.50 0.013
338.00 0.013
337.50 0.013
337.00 0.013
336.50 0.013
336.00 0.013
335.50 0.013
335.00 0.013
334.50 0.013
334.00 0.013
333.50 0.014
333.00 0.014
332.50 0.014
332.00 0.014
331.50 0.015
331.00 0.015
330.50 0.015
330.00 0.015
329.50 0.016
329.00 0.016
328.50 0.016
328.00 0.016
327.50 0.016
327.00 0.016
326.50 0.017
326.00 0.017
325.50 0.018
325.00 0.018
324.50 0.019
324.00 0.019
323.50 0.020
323.00 0.021
322.50 0.022
322.00 0.023
321.50 0.024
321.00 0.026
320.50 0.027
320.00 0.029
319.50 0.032
319.00 0.034
318.50 0.037
318.00 0.040
317.50 0.044
317.00 0.048
316.50 0.052
316.00 0.058
315.50 0.064
315.00 0.070
314.50 0.078
314.00 0.087
313.50 0.096
313.00 0.106
312.50 0.117
312.00 0.131
311.50 0.145
311.00 0.161
310.50 0.178
310.00 0.197
309.50 0.217
309.00 0.238
308.50 0.259
308.00 0.282
307.50 0.304
307.00 0.327
306.50 0.350
306.00 0.374
305.50 0.397
305.00 0.423
304.50 0.448
304.00 0.473
303.50 0.498
303.00 0.524
302.50 0.549
302.00 0.574
301.50 0.597
301.00 0.621
300.50 0.642
300.00 0.661
299.50 0.679
299.00 0.696
298.50 0.711
298.00 0.723
297.50 0.734
297.00 0.745
296.50 0.753
296.00 0.761
295.50 0.767
295.00 0.773
294.50 0.777
294.00 0.780
293.50 0.783
293.00 0.784
292.50 0.784
292.00 0.782
291.50 0.780
291.00 0.777
290.50 0.773
290.00 0.768
289.50 0.762
289.00 0.756
288.50 0.750
288.00 0.743
287.50 0.737
287.00 0.731
286.50 0.725
286.00 0.719
285.50 0.713
285.00 0.707
284.50 0.701
284.00 0.694
283.50 0.686
283.00 0.678
282.50 0.669
282.00 0.659
281.50 0.648
281.00 0.636
280.50 0.623
280.00 0.611
279.50 0.599
279.00 0.587
278.50 0.577
278.00 0.568
277.50 0.559
277.00 0.551
276.50 0.543
276.00 0.535
275.50 0.528
275.00 0.520
274.50 0.513
274.00 0.507
273.50 0.499
273.00 0.493
272.50 0.487
272.00 0.482
271.50 0.477
271.00 0.474
270.50 0.472
270.00 0.471
269.50 0.471
269.00 0.474
268.50 0.478
268.00 0.484
267.50 0.490
267.00 0.499
266.50 0.510
266.00 0.522
265.50 0.536
265.00 0.553
264.50 0.573
264.00 0.595
263.50 0.621
263.00 0.651
262.50 0.686
262.00 0.724
261.50 0.768
261.00 0.817
260.50 0.871
260.00 0.929
259.50 0.993
259.00 1.060
258.50 1.130
258.00 1.203
257.50 1.285
257.00 1.366
256.50 1.450
256.00 1.536
255.50 1.635
255.00 1.732
254.50 1.831
254.00 1.934
253.50 2.057
253.00 2.170
252.50 2.279
252.00 2.392
251.50 2.532
251.00 2.650
250.50 2.746
250.00 2.817
##END=
