##TITLE= WL Accuracy at 546.1nm
##JCAMP-DX= 4.24
##DATA TYPE= UV/VIS SPECTRUM
##ORIGIN= 
##OWNER= Benson
##DATE= 13:35:34, 06/17/2024
##SAMPLE DESCRIPTION= 
##SPECTROMETER/DATA SYSTEM= Hitachi Model U-3900H Spectrophotometer;
Serial Number: 2089-010;
ROM Version: 2J25300 07;
##INSTRUMENT PARAMETERS= Scan Speed= 300 nm/min;
Delay= 0 s;
Cycle Time= 0 min;
Replicates= 1;
Auto Zero before each run= Off;
Slit Width= 2 nm;
PMT Voltage= Auto;
Lamp Change Mode= Auto;
Lamp Change Wavelength= 340.00 nm;
Baseline Correction= User 1;
High Resolution= Off;
D2 Lamp= On;
WI Lamp= On;
R/S Reverse= Off;
##DELTAX= -0.50
##PATH_LENGTH= 10.0mm
##XLABEL= nm
##YLABEL= Abs
##XUNITS= NANOMETERS
##YUNITS= ABSORBANCE
##XFACTOR= 1.0
##YFACTOR= 1.0
##FIRSTX= 400.00
##LASTX= 250.00
##NPOINTS= 301
##XYDATA= (X++(Y..Y))
400.00 0.008
399.50 0.008
399.00 0.008
398.50 0.008
398.00 0.008
397.50 0.009
397.00 0.009
396.50 0.009
396.00 0.009
395.50 0.009
395.00 0.009
394.50 0.009
394.00 0.009
393.50 0.009
393.00 0.009
392.50 0.009
392.00 0.009
391.50 0.009
391.00 0.009
390.50 0.009
390.00 0.009
389.50 0.009
389.00 0.009
388.50 0.009
388.00 0.010
387.50 0.010
387.00 0.010
386.50 0.010
386.00 0.010
385.50 0.010
385.00 0.010
384.50 0.010
384.00 0.010
383.50 0.010
383.00 0.010
382.50 0.010
382.00 0.010
381.50 0.010
381.00 0.010
380.50 0.010
380.00 0.010
379.50 0.010
379.00 0.010
378.50 0.010
378.00 0.010
377.50 0.011
377.00 0.011
376.50 0.011
376.00 0.011
375.50 0.011
375.00 0.010
374.50 0.011
374.00 0.010
373.50 0.011
373.00 0.011
372.50 0.011
372.00 0.011
371.50 0.011
371.00 0.011
370.50 0.011
370.00 0.011
369.50 0.011
369.00 0.011
368.50 0.012
368.00 0.012
367.50 0.012
367.00 0.012
366.50 0.011
366.00 0.012
365.50 0.012
365.00 0.012
364.50 0.012
364.00 0.012
363.50 0.012
363.00 0.012
362.50 0.012
362.00 0.012
361.50 0.012
361.00 0.012
360.50 0.012
360.00 0.012
359.50 0.012
359.00 0.012
358.50 0.012
358.00 0.013
357.50 0.013
357.00 0.013
356.50 0.012
356.00 0.012
355.50 0.012
355.00 0.013
354.50 0.013
354.00 0.013
353.50 0.013
353.00 0.013
352.50 0.013
352.00 0.013
351.50 0.013
351.00 0.013
350.50 0.013
350.00 0.013
349.50 0.014
349.00 0.014
348.50 0.014
348.00 0.014
347.50 0.014
347.00 0.014
346.50 0.014
346.00 0.014
345.50 0.014
345.00 0.014
344.50 0.014
344.00 0.014
343.50 0.014
343.00 0.015
342.50 0.015
342.00 0.015
341.50 0.015
341.00 0.015
340.50 0.015
340.00 0.015
339.50 0.015
339.00 0.014
338.50 0.014
338.00 0.014
337.50 0.015
337.00 0.015
336.50 0.015
336.00 0.015
335.50 0.015
335.00 0.015
334.50 0.015
334.00 0.015
333.50 0.015
333.00 0.016
332.50 0.016
332.00 0.016
331.50 0.017
331.00 0.017
330.50 0.017
330.00 0.017
329.50 0.017
329.00 0.018
328.50 0.018
328.00 0.018
327.50 0.019
327.00 0.019
326.50 0.019
326.00 0.020
325.50 0.020
325.00 0.021
324.50 0.021
324.00 0.022
323.50 0.023
323.00 0.024
322.50 0.025
322.00 0.026
321.50 0.027
321.00 0.029
320.50 0.031
320.00 0.034
319.50 0.036
319.00 0.039
318.50 0.043
318.00 0.047
317.50 0.051
317.00 0.056
316.50 0.061
316.00 0.068
315.50 0.074
315.00 0.082
314.50 0.091
314.00 0.101
313.50 0.112
313.00 0.124
312.50 0.138
312.00 0.154
311.50 0.171
311.00 0.189
310.50 0.209
310.00 0.231
309.50 0.254
309.00 0.279
308.50 0.304
308.00 0.330
307.50 0.356
307.00 0.384
306.50 0.411
306.00 0.438
305.50 0.466
305.00 0.496
304.50 0.525
304.00 0.554
303.50 0.583
303.00 0.614
302.50 0.643
302.00 0.672
301.50 0.699
301.00 0.728
300.50 0.753
300.00 0.775
299.50 0.796
299.00 0.817
298.50 0.834
298.00 0.848
297.50 0.861
297.00 0.874
296.50 0.884
296.00 0.892
295.50 0.900
295.00 0.907
294.50 0.911
294.00 0.915
293.50 0.917
293.00 0.918
292.50 0.917
292.00 0.915
291.50 0.912
291.00 0.907
290.50 0.900
290.00 0.892
289.50 0.883
289.00 0.874
288.50 0.863
288.00 0.852
287.50 0.841
287.00 0.829
286.50 0.817
286.00 0.804
285.50 0.792
285.00 0.778
284.50 0.765
284.00 0.751
283.50 0.736
283.00 0.722
282.50 0.706
282.00 0.691
281.50 0.675
281.00 0.659
280.50 0.642
280.00 0.626
279.50 0.611
279.00 0.596
278.50 0.582
278.00 0.569
277.50 0.557
277.00 0.546
276.50 0.535
276.00 0.525
275.50 0.515
275.00 0.506
274.50 0.498
274.00 0.490
273.50 0.483
273.00 0.476
272.50 0.471
272.00 0.467
271.50 0.464
271.00 0.462
270.50 0.462
270.00 0.463
269.50 0.466
269.00 0.471
268.50 0.478
268.00 0.487
267.50 0.497
267.00 0.509
266.50 0.525
266.00 0.541
265.50 0.559
265.00 0.581
264.50 0.607
264.00 0.636
263.50 0.669
263.00 0.706
262.50 0.748
262.00 0.795
261.50 0.849
261.00 0.908
260.50 0.973
260.00 1.042
259.50 1.120
259.00 1.199
258.50 1.282
258.00 1.368
257.50 1.467
257.00 1.563
256.50 1.661
256.00 1.760
255.50 1.880
255.00 1.993
254.50 2.107
254.00 2.224
253.50 2.369
253.00 2.496
252.50 2.615
252.00 2.736
251.50 2.888
251.00 3.008
250.50 3.102
250.00 3.161
##END=
