##TITLE= WL Accuracy at 546.1nm
##JCAMP-DX= 4.24
##DATA TYPE= UV/VIS SPECTRUM
##ORIGIN= 
##OWNER= Benson
##DATE= 12:57:17, 06/18/2024
##SAMPLE DESCRIPTION= 
##SPECTROMETER/DATA SYSTEM= Hitachi Model U-3900H Spectrophotometer;
Serial Number: 2089-010;
ROM Version: 2J25300 07;
##INSTRUMENT PARAMETERS= Scan Speed= 300 nm/min;
Delay= 0 s;
Cycle Time= 0 min;
Replicates= 1;
Auto Zero before each run= Off;
Slit Width= 2 nm;
PMT Voltage= Auto;
Lamp Change Mode= Auto;
Lamp Change Wavelength= 340.00 nm;
Baseline Correction= User 1;
High Resolution= Off;
D2 Lamp= On;
WI Lamp= On;
R/S Reverse= Off;
##DELTAX= -0.50
##PATH_LENGTH= 10.0mm
##XLABEL= nm
##YLABEL= Abs
##XUNITS= NANOMETERS
##YUNITS= ABSORBANCE
##XFACTOR= 1.0
##YFACTOR= 1.0
##FIRSTX= 400.00
##LASTX= 250.00
##NPOINTS= 301
##XYDATA= (X++(Y..Y))
400.00 0.028
399.50 0.028
399.00 0.028
398.50 0.028
398.00 0.028
397.50 0.028
397.00 0.028
396.50 0.028
396.00 0.028
395.50 0.028
395.00 0.028
394.50 0.028
394.00 0.029
393.50 0.029
393.00 0.029
392.50 0.029
392.00 0.029
391.50 0.029
391.00 0.029
390.50 0.029
390.00 0.029
389.50 0.029
389.00 0.029
388.50 0.029
388.00 0.030
387.50 0.030
387.00 0.030
386.50 0.030
386.00 0.030
385.50 0.030
385.00 0.030
384.50 0.030
384.00 0.030
383.50 0.030
383.00 0.030
382.50 0.030
382.00 0.030
381.50 0.030
381.00 0.031
380.50 0.031
380.00 0.032
379.50 0.032
379.00 0.032
378.50 0.032
378.00 0.032
377.50 0.032
377.00 0.032
376.50 0.032
376.00 0.033
375.50 0.033
375.00 0.033
374.50 0.033
374.00 0.033
373.50 0.033
373.00 0.033
372.50 0.033
372.00 0.033
371.50 0.033
371.00 0.034
370.50 0.034
370.00 0.034
369.50 0.034
369.00 0.034
368.50 0.034
368.00 0.034
367.50 0.034
367.00 0.034
366.50 0.034
366.00 0.034
365.50 0.034
365.00 0.035
364.50 0.035
364.00 0.035
363.50 0.035
363.00 0.035
362.50 0.035
362.00 0.035
361.50 0.035
361.00 0.035
360.50 0.035
360.00 0.035
359.50 0.036
359.00 0.036
358.50 0.036
358.00 0.036
357.50 0.036
357.00 0.037
356.50 0.037
356.00 0.037
355.50 0.037
355.00 0.037
354.50 0.037
354.00 0.037
353.50 0.037
353.00 0.038
352.50 0.038
352.00 0.038
351.50 0.038
351.00 0.038
350.50 0.038
350.00 0.038
349.50 0.039
349.00 0.039
348.50 0.039
348.00 0.039
347.50 0.039
347.00 0.039
346.50 0.039
346.00 0.039
345.50 0.039
345.00 0.040
344.50 0.040
344.00 0.040
343.50 0.041
343.00 0.041
342.50 0.041
342.00 0.041
341.50 0.042
341.00 0.042
340.50 0.043
340.00 0.043
339.50 0.044
339.00 0.044
338.50 0.044
338.00 0.044
337.50 0.045
337.00 0.045
336.50 0.045
336.00 0.045
335.50 0.045
335.00 0.046
334.50 0.046
334.00 0.046
333.50 0.046
333.00 0.046
332.50 0.047
332.00 0.047
331.50 0.047
331.00 0.048
330.50 0.048
330.00 0.048
329.50 0.049
329.00 0.049
328.50 0.049
328.00 0.049
327.50 0.050
327.00 0.050
326.50 0.050
326.00 0.050
325.50 0.050
325.00 0.050
324.50 0.051
324.00 0.051
323.50 0.051
323.00 0.052
322.50 0.052
322.00 0.053
321.50 0.053
321.00 0.054
320.50 0.054
320.00 0.054
319.50 0.054
319.00 0.055
318.50 0.055
318.00 0.055
317.50 0.056
317.00 0.056
316.50 0.056
316.00 0.057
315.50 0.057
315.00 0.057
314.50 0.057
314.00 0.058
313.50 0.058
313.00 0.058
312.50 0.059
312.00 0.060
311.50 0.060
311.00 0.061
310.50 0.061
310.00 0.062
309.50 0.062
309.00 0.063
308.50 0.064
308.00 0.064
307.50 0.065
307.00 0.065
306.50 0.066
306.00 0.067
305.50 0.068
305.00 0.069
304.50 0.069
304.00 0.070
303.50 0.071
303.00 0.072
302.50 0.073
302.00 0.074
301.50 0.075
301.00 0.076
300.50 0.077
300.00 0.078
299.50 0.079
299.00 0.080
298.50 0.082
298.00 0.083
297.50 0.084
297.00 0.086
296.50 0.087
296.00 0.089
295.50 0.090
295.00 0.093
294.50 0.095
294.00 0.098
293.50 0.101
293.00 0.104
292.50 0.108
292.00 0.114
291.50 0.120
291.00 0.127
290.50 0.136
290.00 0.149
289.50 0.162
289.00 0.177
288.50 0.195
288.00 0.217
287.50 0.240
287.00 0.266
286.50 0.295
286.00 0.326
285.50 0.359
285.00 0.394
284.50 0.429
284.00 0.464
283.50 0.497
283.00 0.529
282.50 0.557
282.00 0.578
281.50 0.595
281.00 0.609
280.50 0.619
280.00 0.626
279.50 0.633
279.00 0.642
278.50 0.652
278.00 0.662
277.50 0.673
277.00 0.685
276.50 0.695
276.00 0.704
275.50 0.711
275.00 0.715
274.50 0.715
274.00 0.713
273.50 0.709
273.00 0.702
272.50 0.693
272.00 0.683
271.50 0.672
271.00 0.661
270.50 0.649
270.00 0.638
269.50 0.626
269.00 0.615
268.50 0.604
268.00 0.593
267.50 0.581
267.00 0.570
266.50 0.558
266.00 0.546
265.50 0.534
265.00 0.522
264.50 0.509
264.00 0.496
263.50 0.484
263.00 0.472
262.50 0.460
262.00 0.448
261.50 0.437
261.00 0.427
260.50 0.417
260.00 0.408
259.50 0.399
259.00 0.391
258.50 0.384
258.00 0.377
257.50 0.371
257.00 0.365
256.50 0.361
256.00 0.357
255.50 0.353
255.00 0.350
254.50 0.348
254.00 0.346
253.50 0.345
253.00 0.344
252.50 0.344
252.00 0.344
251.50 0.346
251.00 0.347
250.50 0.349
250.00 0.351
##END=
