##TITLE= WL Accuracy at 546.1nm
##JCAMP-DX= 4.24
##DATA TYPE= UV/VIS SPECTRUM
##ORIGIN= 
##OWNER= Benson
##DATE= 12:27:34, 06/17/2024
##SAMPLE DESCRIPTION= 
##SPECTROMETER/DATA SYSTEM= Hitachi Model U-3900H Spectrophotometer;
Serial Number: 2089-010;
ROM Version: 2J25300 07;
##INSTRUMENT PARAMETERS= Scan Speed= 300 nm/min;
Delay= 0 s;
Cycle Time= 0 min;
Replicates= 1;
Auto Zero before each run= Off;
Slit Width= 2 nm;
PMT Voltage= Auto;
Lamp Change Mode= Auto;
Lamp Change Wavelength= 340.00 nm;
Baseline Correction= User 1;
High Resolution= Off;
D2 Lamp= On;
WI Lamp= On;
R/S Reverse= Off;
##DELTAX= -0.50
##PATH_LENGTH= 10.0mm
##XLABEL= nm
##YLABEL= Abs
##XUNITS= NANOMETERS
##YUNITS= ABSORBANCE
##XFACTOR= 1.0
##YFACTOR= 1.0
##FIRSTX= 400.00
##LASTX= 250.00
##NPOINTS= 301
##XYDATA= (X++(Y..Y))
400.00 0.008
399.50 0.008
399.00 0.008
398.50 0.008
398.00 0.008
397.50 0.008
397.00 0.008
396.50 0.008
396.00 0.008
395.50 0.008
395.00 0.008
394.50 0.008
394.00 0.008
393.50 0.008
393.00 0.008
392.50 0.008
392.00 0.008
391.50 0.008
391.00 0.008
390.50 0.008
390.00 0.008
389.50 0.008
389.00 0.008
388.50 0.008
388.00 0.008
387.50 0.008
387.00 0.008
386.50 0.008
386.00 0.008
385.50 0.008
385.00 0.008
384.50 0.008
384.00 0.008
383.50 0.008
383.00 0.008
382.50 0.008
382.00 0.008
381.50 0.008
381.00 0.008
380.50 0.008
380.00 0.008
379.50 0.008
379.00 0.008
378.50 0.008
378.00 0.008
377.50 0.008
377.00 0.008
376.50 0.008
376.00 0.008
375.50 0.008
375.00 0.008
374.50 0.008
374.00 0.008
373.50 0.008
373.00 0.008
372.50 0.008
372.00 0.008
371.50 0.008
371.00 0.008
370.50 0.008
370.00 0.008
369.50 0.008
369.00 0.008
368.50 0.008
368.00 0.009
367.50 0.008
367.00 0.008
366.50 0.008
366.00 0.008
365.50 0.008
365.00 0.009
364.50 0.009
364.00 0.009
363.50 0.009
363.00 0.008
362.50 0.008
362.00 0.008
361.50 0.008
361.00 0.008
360.50 0.009
360.00 0.009
359.50 0.009
359.00 0.009
358.50 0.009
358.00 0.009
357.50 0.009
357.00 0.009
356.50 0.009
356.00 0.009
355.50 0.009
355.00 0.009
354.50 0.009
354.00 0.009
353.50 0.009
353.00 0.009
352.50 0.009
352.00 0.009
351.50 0.009
351.00 0.009
350.50 0.009
350.00 0.009
349.50 0.009
349.00 0.009
348.50 0.009
348.00 0.009
347.50 0.010
347.00 0.010
346.50 0.010
346.00 0.010
345.50 0.010
345.00 0.010
344.50 0.010
344.00 0.010
343.50 0.010
343.00 0.010
342.50 0.010
342.00 0.010
341.50 0.010
341.00 0.010
340.50 0.010
340.00 0.011
339.50 0.011
339.00 0.011
338.50 0.012
338.00 0.012
337.50 0.012
337.00 0.012
336.50 0.012
336.00 0.012
335.50 0.012
335.00 0.012
334.50 0.012
334.00 0.012
333.50 0.012
333.00 0.012
332.50 0.012
332.00 0.012
331.50 0.012
331.00 0.012
330.50 0.012
330.00 0.012
329.50 0.013
329.00 0.013
328.50 0.014
328.00 0.014
327.50 0.014
327.00 0.014
326.50 0.015
326.00 0.015
325.50 0.015
325.00 0.016
324.50 0.016
324.00 0.017
323.50 0.018
323.00 0.018
322.50 0.019
322.00 0.021
321.50 0.022
321.00 0.024
320.50 0.026
320.00 0.028
319.50 0.031
319.00 0.034
318.50 0.037
318.00 0.041
317.50 0.045
317.00 0.050
316.50 0.055
316.00 0.062
315.50 0.068
315.00 0.076
314.50 0.085
314.00 0.095
313.50 0.106
313.00 0.118
312.50 0.132
312.00 0.148
311.50 0.165
311.00 0.183
310.50 0.204
310.00 0.226
309.50 0.249
309.00 0.274
308.50 0.299
308.00 0.325
307.50 0.351
307.00 0.379
306.50 0.406
306.00 0.433
305.50 0.461
305.00 0.491
304.50 0.520
304.00 0.550
303.50 0.579
303.00 0.609
302.50 0.638
302.00 0.667
301.50 0.694
301.00 0.722
300.50 0.746
300.00 0.769
299.50 0.789
299.00 0.809
298.50 0.826
298.00 0.840
297.50 0.852
297.00 0.865
296.50 0.874
296.00 0.883
295.50 0.889
295.00 0.896
294.50 0.901
294.00 0.904
293.50 0.905
293.00 0.906
292.50 0.905
292.00 0.903
291.50 0.899
291.00 0.894
290.50 0.887
290.00 0.878
289.50 0.869
289.00 0.858
288.50 0.847
288.00 0.835
287.50 0.823
287.00 0.811
286.50 0.798
286.00 0.784
285.50 0.771
285.00 0.757
284.50 0.743
284.00 0.728
283.50 0.713
283.00 0.697
282.50 0.681
282.00 0.665
281.50 0.650
281.00 0.633
280.50 0.616
280.00 0.600
279.50 0.585
279.00 0.570
278.50 0.555
278.00 0.542
277.50 0.530
277.00 0.518
276.50 0.507
276.00 0.497
275.50 0.487
275.00 0.478
274.50 0.469
274.00 0.461
273.50 0.454
273.00 0.448
272.50 0.443
272.00 0.439
271.50 0.435
271.00 0.433
270.50 0.434
270.00 0.435
269.50 0.438
269.00 0.442
268.50 0.450
268.00 0.458
267.50 0.469
267.00 0.481
266.50 0.496
266.00 0.512
265.50 0.531
265.00 0.553
264.50 0.579
264.00 0.607
263.50 0.640
263.00 0.677
262.50 0.720
262.00 0.767
261.50 0.821
261.00 0.879
260.50 0.943
260.00 1.012
259.50 1.089
259.00 1.168
258.50 1.250
258.00 1.336
257.50 1.434
257.00 1.530
256.50 1.626
256.00 1.725
255.50 1.843
255.00 1.955
254.50 2.068
254.00 2.184
253.50 2.327
253.00 2.454
252.50 2.574
252.00 2.693
251.50 2.845
251.00 2.967
250.50 3.059
250.00 3.122
##END=
