##TITLE= WL Accuracy at 546.1nm
##JCAMP-DX= 4.24
##DATA TYPE= UV/VIS SPECTRUM
##ORIGIN= 
##OWNER= Benson
##DATE= 14:57:51, 06/17/2024
##SAMPLE DESCRIPTION= 
##SPECTROMETER/DATA SYSTEM= Hitachi Model U-3900H Spectrophotometer;
Serial Number: 2089-010;
ROM Version: 2J25300 07;
##INSTRUMENT PARAMETERS= Scan Speed= 300 nm/min;
Delay= 0 s;
Cycle Time= 0 min;
Replicates= 1;
Auto Zero before each run= Off;
Slit Width= 2 nm;
PMT Voltage= Auto;
Lamp Change Mode= Auto;
Lamp Change Wavelength= 340.00 nm;
Baseline Correction= User 1;
High Resolution= Off;
D2 Lamp= On;
WI Lamp= On;
R/S Reverse= Off;
##DELTAX= -0.50
##PATH_LENGTH= 10.0mm
##XLABEL= nm
##YLABEL= Abs
##XUNITS= NANOMETERS
##YUNITS= ABSORBANCE
##XFACTOR= 1.0
##YFACTOR= 1.0
##FIRSTX= 400.00
##LASTX= 250.00
##NPOINTS= 301
##XYDATA= (X++(Y..Y))
400.00 0.004
399.50 0.004
399.00 0.003
398.50 0.003
398.00 0.003
397.50 0.003
397.00 0.003
396.50 0.003
396.00 0.004
395.50 0.004
395.00 0.004
394.50 0.004
394.00 0.004
393.50 0.004
393.00 0.004
392.50 0.004
392.00 0.004
391.50 0.004
391.00 0.004
390.50 0.004
390.00 0.004
389.50 0.004
389.00 0.004
388.50 0.004
388.00 0.004
387.50 0.004
387.00 0.004
386.50 0.004
386.00 0.004
385.50 0.004
385.00 0.004
384.50 0.004
384.00 0.004
383.50 0.004
383.00 0.004
382.50 0.005
382.00 0.005
381.50 0.005
381.00 0.005
380.50 0.005
380.00 0.005
379.50 0.005
379.00 0.005
378.50 0.005
378.00 0.006
377.50 0.006
377.00 0.005
376.50 0.005
376.00 0.005
375.50 0.005
375.00 0.005
374.50 0.005
374.00 0.006
373.50 0.006
373.00 0.006
372.50 0.006
372.00 0.006
371.50 0.006
371.00 0.006
370.50 0.006
370.00 0.006
369.50 0.006
369.00 0.006
368.50 0.006
368.00 0.006
367.50 0.006
367.00 0.006
366.50 0.006
366.00 0.006
365.50 0.006
365.00 0.006
364.50 0.006
364.00 0.006
363.50 0.006
363.00 0.006
362.50 0.006
362.00 0.006
361.50 0.006
361.00 0.007
360.50 0.007
360.00 0.007
359.50 0.007
359.00 0.007
358.50 0.007
358.00 0.007
357.50 0.007
357.00 0.007
356.50 0.007
356.00 0.007
355.50 0.007
355.00 0.007
354.50 0.007
354.00 0.008
353.50 0.008
353.00 0.008
352.50 0.008
352.00 0.008
351.50 0.008
351.00 0.008
350.50 0.008
350.00 0.008
349.50 0.008
349.00 0.009
348.50 0.009
348.00 0.009
347.50 0.009
347.00 0.009
346.50 0.009
346.00 0.009
345.50 0.009
345.00 0.009
344.50 0.009
344.00 0.010
343.50 0.010
343.00 0.010
342.50 0.010
342.00 0.010
341.50 0.010
341.00 0.010
340.50 0.011
340.00 0.011
339.50 0.011
339.00 0.011
338.50 0.011
338.00 0.011
337.50 0.011
337.00 0.011
336.50 0.011
336.00 0.011
335.50 0.011
335.00 0.012
334.50 0.012
334.00 0.012
333.50 0.012
333.00 0.012
332.50 0.012
332.00 0.013
331.50 0.013
331.00 0.013
330.50 0.013
330.00 0.013
329.50 0.014
329.00 0.014
328.50 0.014
328.00 0.014
327.50 0.015
327.00 0.015
326.50 0.015
326.00 0.016
325.50 0.016
325.00 0.016
324.50 0.017
324.00 0.018
323.50 0.018
323.00 0.019
322.50 0.020
322.00 0.021
321.50 0.022
321.00 0.024
320.50 0.025
320.00 0.027
319.50 0.029
319.00 0.032
318.50 0.035
318.00 0.038
317.50 0.041
317.00 0.045
316.50 0.049
316.00 0.054
315.50 0.060
315.00 0.066
314.50 0.073
314.00 0.080
313.50 0.089
313.00 0.098
312.50 0.109
312.00 0.122
311.50 0.135
311.00 0.150
310.50 0.166
310.00 0.183
309.50 0.202
309.00 0.221
308.50 0.241
308.00 0.262
307.50 0.283
307.00 0.304
306.50 0.326
306.00 0.348
305.50 0.370
305.00 0.392
304.50 0.416
304.00 0.440
303.50 0.463
303.00 0.487
302.50 0.511
302.00 0.534
301.50 0.556
301.00 0.577
300.50 0.598
300.00 0.616
299.50 0.632
299.00 0.647
298.50 0.662
298.00 0.674
297.50 0.684
297.00 0.693
296.50 0.702
296.00 0.709
295.50 0.714
295.00 0.720
294.50 0.725
294.00 0.728
293.50 0.730
293.00 0.731
292.50 0.732
292.00 0.731
291.50 0.729
291.00 0.727
290.50 0.723
290.00 0.719
289.50 0.715
289.00 0.711
288.50 0.706
288.00 0.702
287.50 0.698
287.00 0.694
286.50 0.691
286.00 0.688
285.50 0.684
285.00 0.681
284.50 0.678
284.00 0.675
283.50 0.670
283.00 0.664
282.50 0.658
282.00 0.649
281.50 0.640
281.00 0.630
280.50 0.619
280.00 0.608
279.50 0.598
279.00 0.588
278.50 0.579
278.00 0.570
277.50 0.563
277.00 0.556
276.50 0.550
276.00 0.543
275.50 0.537
275.00 0.530
274.50 0.524
274.00 0.517
273.50 0.510
273.00 0.503
272.50 0.497
272.00 0.492
271.50 0.487
271.00 0.482
270.50 0.479
270.00 0.478
269.50 0.477
269.00 0.478
268.50 0.481
268.00 0.486
267.50 0.491
267.00 0.498
266.50 0.507
266.00 0.518
265.50 0.530
265.00 0.544
264.50 0.561
264.00 0.582
263.50 0.604
263.00 0.631
262.50 0.661
262.00 0.697
261.50 0.736
261.00 0.781
260.50 0.830
260.00 0.883
259.50 0.940
259.00 1.003
258.50 1.068
258.00 1.136
257.50 1.207
257.00 1.286
256.50 1.365
256.00 1.445
255.50 1.529
255.00 1.626
254.50 1.721
254.00 1.819
253.50 1.920
253.00 2.036
252.50 2.147
252.00 2.255
251.50 2.367
251.00 2.498
250.50 2.600
250.00 2.670
##END=
