##TITLE= WL Accuracy at 546.1nm
##JCAMP-DX= 4.24
##DATA TYPE= UV/VIS SPECTRUM
##ORIGIN= 
##OWNER= Benson
##DATE= 13:08:55, 06/17/2024
##SAMPLE DESCRIPTION= 
##SPECTROMETER/DATA SYSTEM= Hitachi Model U-3900H Spectrophotometer;
Serial Number: 2089-010;
ROM Version: 2J25300 07;
##INSTRUMENT PARAMETERS= Scan Speed= 300 nm/min;
Delay= 0 s;
Cycle Time= 0 min;
Replicates= 1;
Auto Zero before each run= Off;
Slit Width= 2 nm;
PMT Voltage= Auto;
Lamp Change Mode= Auto;
Lamp Change Wavelength= 340.00 nm;
Baseline Correction= User 1;
High Resolution= Off;
D2 Lamp= On;
WI Lamp= On;
R/S Reverse= Off;
##DELTAX= -0.50
##PATH_LENGTH= 10.0mm
##XLABEL= nm
##YLABEL= Abs
##XUNITS= NANOMETERS
##YUNITS= ABSORBANCE
##XFACTOR= 1.0
##YFACTOR= 1.0
##FIRSTX= 400.00
##LASTX= 250.00
##NPOINTS= 301
##XYDATA= (X++(Y..Y))
400.00 -0.002
399.50 -0.002
399.00 -0.002
398.50 -0.002
398.00 -0.002
397.50 -0.002
397.00 -0.002
396.50 -0.002
396.00 -0.002
395.50 -0.002
395.00 -0.002
394.50 -0.002
394.00 -0.002
393.50 -0.002
393.00 -0.002
392.50 -0.002
392.00 -0.002
391.50 -0.002
391.00 -0.002
390.50 -0.002
390.00 -0.002
389.50 -0.002
389.00 -0.002
388.50 -0.002
388.00 -0.002
387.50 -0.002
387.00 -0.002
386.50 -0.002
386.00 -0.002
385.50 -0.002
385.00 -0.002
384.50 -0.002
384.00 -0.002
383.50 -0.002
383.00 -0.002
382.50 -0.002
382.00 -0.002
381.50 -0.002
381.00 -0.002
380.50 -0.002
380.00 -0.002
379.50 -0.002
379.00 -0.002
378.50 -0.002
378.00 -0.002
377.50 -0.002
377.00 -0.002
376.50 -0.002
376.00 -0.002
375.50 -0.002
375.00 -0.002
374.50 -0.002
374.00 -0.002
373.50 -0.002
373.00 -0.002
372.50 -0.002
372.00 -0.002
371.50 -0.002
371.00 -0.002
370.50 -0.002
370.00 -0.002
369.50 -0.002
369.00 -0.002
368.50 -0.002
368.00 -0.002
367.50 -0.002
367.00 -0.002
366.50 -0.002
366.00 -0.002
365.50 -0.002
365.00 -0.002
364.50 -0.002
364.00 -0.002
363.50 -0.002
363.00 -0.002
362.50 -0.002
362.00 -0.002
361.50 -0.002
361.00 -0.002
360.50 -0.002
360.00 -0.002
359.50 -0.002
359.00 -0.002
358.50 -0.002
358.00 -0.002
357.50 -0.002
357.00 -0.002
356.50 -0.002
356.00 -0.002
355.50 -0.002
355.00 -0.002
354.50 -0.002
354.00 -0.002
353.50 -0.002
353.00 -0.002
352.50 -0.002
352.00 -0.002
351.50 -0.002
351.00 -0.002
350.50 -0.002
350.00 -0.002
349.50 -0.002
349.00 -0.002
348.50 -0.002
348.00 -0.002
347.50 -0.001
347.00 -0.001
346.50 -0.002
346.00 -0.002
345.50 -0.002
345.00 -0.002
344.50 -0.002
344.00 -0.002
343.50 -0.002
343.00 -0.002
342.50 -0.002
342.00 -0.002
341.50 -0.002
341.00 -0.002
340.50 -0.002
340.00 -0.002
339.50 -0.001
339.00 -0.001
338.50 -0.001
338.00 -0.001
337.50 -0.001
337.00 -0.001
336.50 -0.002
336.00 -0.002
335.50 -0.002
335.00 -0.002
334.50 -0.002
334.00 -0.002
333.50 -0.001
333.00 -0.001
332.50 -0.001
332.00 -0.001
331.50 -0.001
331.00 -0.001
330.50 -0.001
330.00 -0.001
329.50 -0.001
329.00 -0.002
328.50 -0.001
328.00 -0.001
327.50 -0.001
327.00 -0.001
326.50 0.000
326.00 0.000
325.50 0.000
325.00 0.000
324.50 -0.001
324.00 0.000
323.50 0.000
323.00 0.000
322.50 0.000
322.00 0.000
321.50 0.000
321.00 0.000
320.50 0.000
320.00 0.000
319.50 0.000
319.00 0.000
318.50 0.000
318.00 0.000
317.50 0.000
317.00 0.001
316.50 0.001
316.00 0.001
315.50 0.001
315.00 0.001
314.50 0.001
314.00 0.001
313.50 0.001
313.00 0.002
312.50 0.002
312.00 0.002
311.50 0.002
311.00 0.002
310.50 0.001
310.00 0.002
309.50 0.002
309.00 0.002
308.50 0.002
308.00 0.003
307.50 0.003
307.00 0.003
306.50 0.003
306.00 0.003
305.50 0.003
305.00 0.003
304.50 0.003
304.00 0.003
303.50 0.004
303.00 0.004
302.50 0.004
302.00 0.005
301.50 0.005
301.00 0.005
300.50 0.006
300.00 0.006
299.50 0.006
299.00 0.007
298.50 0.007
298.00 0.008
297.50 0.008
297.00 0.009
296.50 0.009
296.00 0.010
295.50 0.011
295.00 0.013
294.50 0.014
294.00 0.015
293.50 0.018
293.00 0.020
292.50 0.023
292.00 0.026
291.50 0.032
291.00 0.038
290.50 0.045
290.00 0.054
289.50 0.066
289.00 0.079
288.50 0.094
288.00 0.111
287.50 0.132
287.00 0.154
286.50 0.179
286.00 0.207
285.50 0.236
285.00 0.266
284.50 0.298
284.00 0.329
283.50 0.358
283.00 0.385
282.50 0.409
282.00 0.429
281.50 0.443
281.00 0.454
280.50 0.463
280.00 0.470
279.50 0.475
279.00 0.482
278.50 0.491
278.00 0.500
277.50 0.509
277.00 0.519
276.50 0.529
276.00 0.536
275.50 0.541
275.00 0.545
274.50 0.545
274.00 0.543
273.50 0.538
273.00 0.532
272.50 0.524
272.00 0.515
271.50 0.504
271.00 0.494
270.50 0.483
270.00 0.471
269.50 0.460
269.00 0.450
268.50 0.439
268.00 0.428
267.50 0.418
267.00 0.407
266.50 0.396
266.00 0.385
265.50 0.374
265.00 0.362
264.50 0.350
264.00 0.338
263.50 0.327
263.00 0.315
262.50 0.304
262.00 0.293
261.50 0.282
261.00 0.272
260.50 0.262
260.00 0.252
259.50 0.243
259.00 0.235
258.50 0.227
258.00 0.220
257.50 0.213
257.00 0.206
256.50 0.200
256.00 0.195
255.50 0.190
255.00 0.186
254.50 0.181
254.00 0.178
253.50 0.175
253.00 0.171
252.50 0.169
252.00 0.167
251.50 0.166
251.00 0.165
250.50 0.164
250.00 0.164
##END=
