##TITLE= WL Accuracy at 546.1nm
##JCAMP-DX= 4.24
##DATA TYPE= UV/VIS SPECTRUM
##ORIGIN= 
##OWNER= Benson
##DATE= 16:35:22, 06/17/2024
##SAMPLE DESCRIPTION= 
##SPECTROMETER/DATA SYSTEM= Hitachi Model U-3900H Spectrophotometer;
Serial Number: 2089-010;
ROM Version: 2J25300 07;
##INSTRUMENT PARAMETERS= Scan Speed= 300 nm/min;
Delay= 0 s;
Cycle Time= 0 min;
Replicates= 1;
Auto Zero before each run= Off;
Slit Width= 2 nm;
PMT Voltage= Auto;
Lamp Change Mode= Auto;
Lamp Change Wavelength= 340.00 nm;
Baseline Correction= User 1;
High Resolution= Off;
D2 Lamp= On;
WI Lamp= On;
R/S Reverse= Off;
##DELTAX= -0.50
##PATH_LENGTH= 10.0mm
##XLABEL= nm
##YLABEL= Abs
##XUNITS= NANOMETERS
##YUNITS= ABSORBANCE
##XFACTOR= 1.0
##YFACTOR= 1.0
##FIRSTX= 400.00
##LASTX= 250.00
##NPOINTS= 301
##XYDATA= (X++(Y..Y))
400.00 0.018
399.50 0.019
399.00 0.019
398.50 0.019
398.00 0.019
397.50 0.019
397.00 0.019
396.50 0.019
396.00 0.019
395.50 0.019
395.00 0.019
394.50 0.019
394.00 0.019
393.50 0.019
393.00 0.019
392.50 0.019
392.00 0.019
391.50 0.020
391.00 0.020
390.50 0.020
390.00 0.020
389.50 0.020
389.00 0.020
388.50 0.020
388.00 0.020
387.50 0.020
387.00 0.020
386.50 0.020
386.00 0.021
385.50 0.021
385.00 0.021
384.50 0.021
384.00 0.021
383.50 0.021
383.00 0.021
382.50 0.021
382.00 0.021
381.50 0.021
381.00 0.022
380.50 0.022
380.00 0.022
379.50 0.022
379.00 0.022
378.50 0.022
378.00 0.022
377.50 0.022
377.00 0.022
376.50 0.022
376.00 0.022
375.50 0.022
375.00 0.023
374.50 0.023
374.00 0.023
373.50 0.023
373.00 0.023
372.50 0.023
372.00 0.023
371.50 0.023
371.00 0.023
370.50 0.023
370.00 0.024
369.50 0.024
369.00 0.024
368.50 0.024
368.00 0.024
367.50 0.024
367.00 0.024
366.50 0.024
366.00 0.024
365.50 0.024
365.00 0.025
364.50 0.025
364.00 0.025
363.50 0.025
363.00 0.025
362.50 0.025
362.00 0.025
361.50 0.025
361.00 0.025
360.50 0.026
360.00 0.026
359.50 0.026
359.00 0.026
358.50 0.026
358.00 0.026
357.50 0.026
357.00 0.026
356.50 0.026
356.00 0.026
355.50 0.026
355.00 0.027
354.50 0.027
354.00 0.027
353.50 0.027
353.00 0.028
352.50 0.028
352.00 0.028
351.50 0.028
351.00 0.028
350.50 0.028
350.00 0.028
349.50 0.028
349.00 0.028
348.50 0.029
348.00 0.029
347.50 0.029
347.00 0.029
346.50 0.029
346.00 0.029
345.50 0.029
345.00 0.030
344.50 0.030
344.00 0.030
343.50 0.030
343.00 0.030
342.50 0.031
342.00 0.031
341.50 0.031
341.00 0.031
340.50 0.031
340.00 0.032
339.50 0.032
339.00 0.033
338.50 0.033
338.00 0.033
337.50 0.033
337.00 0.033
336.50 0.033
336.00 0.034
335.50 0.034
335.00 0.034
334.50 0.035
334.00 0.035
333.50 0.035
333.00 0.035
332.50 0.035
332.00 0.035
331.50 0.036
331.00 0.036
330.50 0.036
330.00 0.036
329.50 0.037
329.00 0.037
328.50 0.037
328.00 0.038
327.50 0.038
327.00 0.038
326.50 0.038
326.00 0.038
325.50 0.038
325.00 0.038
324.50 0.039
324.00 0.040
323.50 0.041
323.00 0.041
322.50 0.042
322.00 0.042
321.50 0.042
321.00 0.043
320.50 0.044
320.00 0.045
319.50 0.046
319.00 0.047
318.50 0.049
318.00 0.050
317.50 0.052
317.00 0.053
316.50 0.055
316.00 0.057
315.50 0.060
315.00 0.062
314.50 0.065
314.00 0.068
313.50 0.071
313.00 0.075
312.50 0.080
312.00 0.085
311.50 0.091
311.00 0.097
310.50 0.103
310.00 0.110
309.50 0.118
309.00 0.126
308.50 0.134
308.00 0.142
307.50 0.151
307.00 0.160
306.50 0.169
306.00 0.177
305.50 0.187
305.00 0.196
304.50 0.206
304.00 0.215
303.50 0.225
303.00 0.235
302.50 0.244
302.00 0.254
301.50 0.263
301.00 0.272
300.50 0.280
300.00 0.288
299.50 0.295
299.00 0.301
298.50 0.307
298.00 0.313
297.50 0.317
297.00 0.321
296.50 0.325
296.00 0.329
295.50 0.332
295.00 0.335
294.50 0.338
294.00 0.340
293.50 0.343
293.00 0.345
292.50 0.348
292.00 0.350
291.50 0.354
291.00 0.356
290.50 0.360
290.00 0.365
289.50 0.372
289.00 0.379
288.50 0.388
288.00 0.399
287.50 0.412
287.00 0.426
286.50 0.442
286.00 0.460
285.50 0.479
285.00 0.498
284.50 0.519
284.00 0.538
283.50 0.556
283.00 0.572
282.50 0.586
282.00 0.596
281.50 0.602
281.00 0.605
280.50 0.607
280.00 0.607
279.50 0.607
279.00 0.608
278.50 0.610
278.00 0.613
277.50 0.617
277.00 0.621
276.50 0.624
276.00 0.627
275.50 0.628
275.00 0.628
274.50 0.625
274.00 0.620
273.50 0.614
273.00 0.607
272.50 0.599
272.00 0.590
271.50 0.581
271.00 0.572
270.50 0.564
270.00 0.556
269.50 0.549
269.00 0.542
268.50 0.536
268.00 0.530
267.50 0.525
267.00 0.521
266.50 0.517
266.00 0.514
265.50 0.511
265.00 0.508
264.50 0.507
264.00 0.507
263.50 0.508
263.00 0.511
262.50 0.516
262.00 0.523
261.50 0.532
261.00 0.542
260.50 0.555
260.00 0.571
259.50 0.588
259.00 0.608
258.50 0.629
258.00 0.652
257.50 0.677
257.00 0.703
256.50 0.732
256.00 0.762
255.50 0.794
255.00 0.829
254.50 0.866
254.00 0.905
253.50 0.945
253.00 0.988
252.50 1.033
252.00 1.080
251.50 1.130
251.00 1.181
250.50 1.224
250.00 1.256
##END=
