##TITLE= WL Accuracy at 546.1nm
##JCAMP-DX= 4.24
##DATA TYPE= UV/VIS SPECTRUM
##ORIGIN= 
##OWNER= Benson
##DATE= 13:59:52, 06/17/2024
##SAMPLE DESCRIPTION= 
##SPECTROMETER/DATA SYSTEM= Hitachi Model U-3900H Spectrophotometer;
Serial Number: 2089-010;
ROM Version: 2J25300 07;
##INSTRUMENT PARAMETERS= Scan Speed= 300 nm/min;
Delay= 0 s;
Cycle Time= 0 min;
Replicates= 1;
Auto Zero before each run= Off;
Slit Width= 2 nm;
PMT Voltage= Auto;
Lamp Change Mode= Auto;
Lamp Change Wavelength= 340.00 nm;
Baseline Correction= User 1;
High Resolution= Off;
D2 Lamp= On;
WI Lamp= On;
R/S Reverse= Off;
##DELTAX= -0.50
##PATH_LENGTH= 10.0mm
##XLABEL= nm
##YLABEL= Abs
##XUNITS= NANOMETERS
##YUNITS= ABSORBANCE
##XFACTOR= 1.0
##YFACTOR= 1.0
##FIRSTX= 400.00
##LASTX= 250.00
##NPOINTS= 301
##XYDATA= (X++(Y..Y))
400.00 0.007
399.50 0.007
399.00 0.007
398.50 0.007
398.00 0.007
397.50 0.007
397.00 0.007
396.50 0.007
396.00 0.007
395.50 0.007
395.00 0.007
394.50 0.007
394.00 0.007
393.50 0.007
393.00 0.007
392.50 0.007
392.00 0.007
391.50 0.007
391.00 0.007
390.50 0.007
390.00 0.007
389.50 0.007
389.00 0.007
388.50 0.007
388.00 0.007
387.50 0.007
387.00 0.008
386.50 0.008
386.00 0.008
385.50 0.008
385.00 0.008
384.50 0.008
384.00 0.008
383.50 0.008
383.00 0.008
382.50 0.008
382.00 0.009
381.50 0.009
381.00 0.009
380.50 0.009
380.00 0.008
379.50 0.008
379.00 0.009
378.50 0.009
378.00 0.009
377.50 0.009
377.00 0.009
376.50 0.009
376.00 0.009
375.50 0.009
375.00 0.009
374.50 0.009
374.00 0.009
373.50 0.009
373.00 0.009
372.50 0.009
372.00 0.009
371.50 0.009
371.00 0.009
370.50 0.009
370.00 0.010
369.50 0.010
369.00 0.010
368.50 0.010
368.00 0.010
367.50 0.010
367.00 0.010
366.50 0.010
366.00 0.010
365.50 0.010
365.00 0.010
364.50 0.010
364.00 0.010
363.50 0.010
363.00 0.010
362.50 0.010
362.00 0.011
361.50 0.010
361.00 0.010
360.50 0.010
360.00 0.011
359.50 0.010
359.00 0.011
358.50 0.011
358.00 0.011
357.50 0.011
357.00 0.011
356.50 0.011
356.00 0.011
355.50 0.011
355.00 0.011
354.50 0.012
354.00 0.011
353.50 0.011
353.00 0.012
352.50 0.012
352.00 0.012
351.50 0.012
351.00 0.012
350.50 0.012
350.00 0.013
349.50 0.013
349.00 0.013
348.50 0.013
348.00 0.013
347.50 0.013
347.00 0.013
346.50 0.013
346.00 0.013
345.50 0.013
345.00 0.013
344.50 0.014
344.00 0.014
343.50 0.014
343.00 0.014
342.50 0.014
342.00 0.014
341.50 0.014
341.00 0.014
340.50 0.014
340.00 0.014
339.50 0.014
339.00 0.014
338.50 0.014
338.00 0.014
337.50 0.014
337.00 0.014
336.50 0.015
336.00 0.014
335.50 0.014
335.00 0.014
334.50 0.014
334.00 0.015
333.50 0.015
333.00 0.015
332.50 0.015
332.00 0.016
331.50 0.016
331.00 0.016
330.50 0.016
330.00 0.016
329.50 0.017
329.00 0.017
328.50 0.017
328.00 0.017
327.50 0.018
327.00 0.018
326.50 0.018
326.00 0.019
325.50 0.019
325.00 0.020
324.50 0.020
324.00 0.021
323.50 0.022
323.00 0.022
322.50 0.023
322.00 0.025
321.50 0.026
321.00 0.028
320.50 0.030
320.00 0.033
319.50 0.035
319.00 0.038
318.50 0.042
318.00 0.046
317.50 0.050
317.00 0.055
316.50 0.060
316.00 0.067
315.50 0.074
315.00 0.081
314.50 0.090
314.00 0.101
313.50 0.111
313.00 0.123
312.50 0.137
312.00 0.153
311.50 0.170
311.00 0.189
310.50 0.209
310.00 0.232
309.50 0.255
309.00 0.280
308.50 0.305
308.00 0.331
307.50 0.357
307.00 0.384
306.50 0.411
306.00 0.439
305.50 0.467
305.00 0.497
304.50 0.526
304.00 0.556
303.50 0.585
303.00 0.615
302.50 0.645
302.00 0.674
301.50 0.701
301.00 0.729
300.50 0.754
300.00 0.776
299.50 0.797
299.00 0.817
298.50 0.834
298.00 0.849
297.50 0.862
297.00 0.874
296.50 0.884
296.00 0.893
295.50 0.900
295.00 0.907
294.50 0.912
294.00 0.915
293.50 0.917
293.00 0.918
292.50 0.918
292.00 0.915
291.50 0.912
291.00 0.907
290.50 0.900
290.00 0.892
289.50 0.883
289.00 0.874
288.50 0.863
288.00 0.852
287.50 0.841
287.00 0.829
286.50 0.817
286.00 0.805
285.50 0.792
285.00 0.779
284.50 0.766
284.00 0.752
283.50 0.738
283.00 0.723
282.50 0.707
282.00 0.692
281.50 0.677
281.00 0.661
280.50 0.644
280.00 0.628
279.50 0.613
279.00 0.598
278.50 0.584
278.00 0.572
277.50 0.560
277.00 0.548
276.50 0.538
276.00 0.528
275.50 0.518
275.00 0.509
274.50 0.500
274.00 0.493
273.50 0.485
273.00 0.479
272.50 0.474
272.00 0.470
271.50 0.467
271.00 0.465
270.50 0.465
270.00 0.466
269.50 0.468
269.00 0.473
268.50 0.481
268.00 0.489
267.50 0.500
267.00 0.512
266.50 0.528
266.00 0.544
265.50 0.563
265.00 0.585
264.50 0.611
264.00 0.640
263.50 0.673
263.00 0.710
262.50 0.754
262.00 0.801
261.50 0.855
261.00 0.915
260.50 0.980
260.00 1.049
259.50 1.127
259.00 1.207
258.50 1.290
258.00 1.377
257.50 1.476
257.00 1.573
256.50 1.671
256.00 1.771
255.50 1.891
255.00 2.005
254.50 2.120
254.00 2.237
253.50 2.382
253.00 2.509
252.50 2.628
252.00 2.749
251.50 2.903
251.00 3.024
250.50 3.114
250.00 3.173
##END=
